325
326
327
328
328
328
328
327
326
326
324
324
322
322
322
322
323
324
324
326
325
327
328
328
328
329
328
328
327
326
326
326
327
326
327
327
326
326
326
326
326
327
327
327
328
328
330
329
329
329
330
330
330
330
331
331
330
330
330
330
330
329
328
329
330
330
332
332
333
332
332
333
333
333
332
331
331
330
330
330
330
329
330
331
332
332
334
335
337
338
337
336
336
337
337
337
337
335
335
333
333
333
332
333
331
332
331
332
332
332
332
332
333
334
334
333
333
334
333
333
334
334
333
334
333
333
332
333
332
332
333
333
332
332
333
333
333
332
332
331
330
330
331
334
335
335
336
336
336
336
336
337
336
337
337
336
335
334
334
334
334
334
333
333
333
333
334
334
334
334
334
335
336
337
338
339
338
340
340
340
338
338
337
335
333
332
330
330
330
330
331
333
334
334
335
336
337
337
337
338
338
338
337
337
338
338
337
337
335
336
337
336
337
336
337
338
338
338
339
339
338
339
338
338
336
335
333
334
334
334
334
335
336
337
339
340
341
342
342
342
341
341
340
340
338
338
336
336
335
335
334
335
338
340
342
344
346
347
350
350
350
351
352
354
353
355
354
354
355
355
356
355
355
355
355
355
354
352
351
349
348
349
351
353
356
361
365
368
372
373
374
374
372
370
365
360
355
350
346
343
340
338
338
339
340
345
347
348
349
350
350
350
348
346
342
340
337
331
328
327
325
325
328
330
333
335
338
341
343
344
343
343
341
337
334
331
329
326
325
325
326
326
328
331
331
334
335
337
338
337
337
337
336
333
333
331
331
330
330
331
331
333
333
334
335
337
335
333
328
323
317
311
307
303
302
303
306
315
329
348
372
399
430
463
498
536
572
607
640
659
663
663
662
663
660
654
629
583
518
438
351
264
181
113
64
36
30
50
91
151
222
298
373
441
491
525
537
529
503
462
410
353
296
244
205
177
166
170
191
222
262
306
350
391
421
442
451
446
431
405
373
337
301
271
247
230
223
226
239
258
283
311
340
364
384
399
404
401
392
377
357
336
316
296
281
271
267
270
278
291
308
325
342
357
369
376
378
376
369
358
347
334
321
310
303
298
296
298
305
313
321
333
343
351
359
363
364
363
358
353
344
337
328
320
316
313
313
313
317
322
328
335
341
346
351
354
354
354
352
348
344
339
334
330
327
325
323
322
324
327
332
337
341
344
348
350
351
351
351
349
347
344
341
340
338
337
338
338
340
341
343
345
349
351
353
355
356
356
356
355
354
352
350
348
347
345
345
345
345
346
349
351
354
356
361
363
365
365
365
365
364
362
360
359
359
359
358
360
361
362
363
366
368
368
370
373
374
374
375
375
373
374
372
372
371
371
372
372
372
372
372
373
373
373
373
373
374
376
376
378
378
378
377
376
375
373
370
367
364
360
358
356
355
352
351
350
351
350
349
349
347
347
344
343
342
339
338
335
333
331
328
327
324
323
323
321
322
323
325
324
326
326
327
327
325
325
322
320
318
315
313
312
312
312
312
313
314
315
316
318
320
320
320
320
318
316
314
312
309
307
307
307
308
309
312
314
317
319
321
322
323
322
321
320
316
314
313
311
311
309
310
310
312
313
316
316
318
320
322
323
323
324
323
323
322
321
320
319
319
319
318
318
318
320
321
322
324
325
326
326
326
327
325
325
323
323
321
321
322
320
320
320
321
322
323
324
326
327
329
329
330
330
329
329
328
327
325
324
324
324
324
325
325
326
327
327
328
330
330
331
331
331
329
330
329
327
326
325
325
326
324
325
326
326
327
328
330
330
330
330
328
327
325
322
321
320
318
317
318
319
320
320
321
323
326
327
329
330
331
332
333
331
331
330
328
327
326
325
323
324
323
324
324
325
327
328
327
328
328
327
326
326
323
323
322
321
323
324
325
327
330
332
333
334
333
333
332
331
330
328
326
325
322
322
322
322
323
324
326
327
331
333
336
337
337
336
335
332
329
325
323
321
318
318
317
318
321
324
328
332
334
338
339
340
340
341
339
336
332
329
325
321
320
318
317
318
321
324
327
330
334
336
338
339
340
339
337
336
333
332
330
329
330
331
334
338
342
347
350
355
358
360
360
360
360
356
353
349
344
342
339
337
336
338
341
345
351
358
363
368
373
374
375
374
371
367
363
357
349
343
339
335
332
331
332
334
336
341
345
347
349
351
351
349
346
342
337
332
327
321
319
317
316
317
321
325
330
335
339
342
344
344
342
340
336
331
326
322
317
315
314
315
315
318
320
326
328
332
334
336
339
338
337
335
333
331
326
324
323
322
322
323
325
326
328
331
332
334
335
332
329
324
317
309
302
296
289
286
288
295
305
322
346
375
407
440
476
515
553
590
625
656
662
662
663
662
662
661
654
624
575
504
423
333
243
159
91
44
20
20
46
95
160
236
317
394
458
507
537
544
531
498
452
395
334
275
222
184
161
154
163
186
223
267
315
360
401
430
448
454
443
424
393
358
320
283
252
228
214
210
217
234
259
289
320
351
378
398
411
413
407
394
374
349
325
301
279
263
254
252
256
270
285
304
325
346
362
375
383
384
382
375
364
350
334
318
304
293
286
283
285
291
301
313
327
339
352
361
368
371
370
366
360
350
340
329
321
313
308
306
308
311
316
324
332
341
348
354
358
362
361
359
356
350
345
339
333
329
326
324
324
327
331
336
341
346
350
353
355
357
355
354
352
349
346
343
342
341
341
341
341
344
344
347
350
351
353
355
356
356
357
355
354
353
353
353
353
354
354
355
355
357
358
359
360
362
363
364
365
365
365
364
364
364
364
363
363
363
362
364
365
366
366
368
368
370
372
371
373
374
374
374
375
376
376
377
376
377
378
379
378
379
379
379
378
379
379
378
377
376
376
375
375
374
374
374
373
373
373
371
371
369
368
366
365
361
359
357
355
353
351
349
347
345
343
342
340
338
338
337
336
335
334
333
332
331
329
325
324
322
321
319
318
317
316
316
317
318
318
317
318
319
319
318
318
316
315
315
314
313
312
313
311
312
312
312
312
313
313
314
314
313
314
313
313
312
311
311
311
311
311
311
312
311
313
313
313
314
314
315
315
316
317
318
317
318
317
317
316
316
315
316
314
314
314
315
314
315
316
314
316
316
315
316
317
316
316
316
317
317
318
318
318
319
318
317
317
316
315
315
313
314
313
314
314
316
317
317
319
319
319
320
319
320
319
319
318
316
315
315
314
315
314
316
316
317
319
320
321
320
320
320
320
319
319
319
319
318
318
317
317
317
315
315
315
315
317
317
317
317
319
319
318
318
318
317
315
315
314
312
312
312
311
311
314
314
315
317
319
320
321
320
320
321
320
318
317
315
313
313
311
310
310
310
310
312
312
315
316
318
318
319
319
319
319
318
316
315
314
312
312
311
312
313
314
315
317
319
320
321
321
320
320
319
318
316
314
315
314
314
314
315
315
316
317
318
319
320
320
321
320
320
320
318
317
316
316
316
316
316
316
318
319
320
320
320
320
319
321
320
320
318
318
317
316
316
317
315
316
316
318
318
319
319
321
321
320
320
320
320
318
318
317
317
318
319
320
320
320
321
321
322
323
322
320
320
318
319
320
318
320
320
322
322
323
325
325
327
328
331
331
332
332
333
332
331
332
333
333
335
336
338
339
340
343
343
343
344
341
340
337
335
332
331
331
333
335
338
342
347
352
357
361
363
365
363
359
353
348
339
333
326
320
316
315
315
316
318
323
326
331
334
337
341
341
340
338
336
332
328
323
319
317
313
312
313
314
316
319
320
322
323
322
322
323
322
321
320
319
317
317
316
316
316
316
317
317
319
320
322
324
324
325
325
325
324
322
320
318
317
316
316
317
318
321
321
323
325
325
324
321
316
310
304
299
294
292
291
294
301
311
326
346
371
399
428
459
492
525
559
591
620
646
661
662
662
660
657
639
601
543
470
385
299
215
141
83
45
29
36
64
111
172
241
312
381
439
481
505
508
493
464
419
368
315
266
224
193
177
176
187
213
248
286
329
365
398
421
433
433
422
401
373
342
308
277
252
234
224
225
235
252
277
303
330
355
376
390
398
397
389
374
355
334
313
293
278
268
263
265
271
284
300
316
334
351
364
372
377
376
371
363
350
337
324
310
300
293
289
290
293
301
312
323
334
345
354
361
363
364
360
355
347
339
330
322
316
312
310
312
315
322
329
336
344
351
354
357
359
358
354
350
344
337
330
324
320
318
317
318
322
326
333
339
346
352
357
359
360
361
359
355
352
348
342
338
333
331
330
331
331
335
340
344
349
354
357
360
362
361
361
358
354
350
345
344
341
341
341
342
344
347
349
354
357
361
365
367
367
368
367
364
362
360
357
355
353
353
353
354
357
358
361
364
368
370
369
371
370
370
369
368
368
367
368
367
368
370
371
372
375
375
377
379
378
378
379
379
378
377
375
374
373
371
369
368
368
367
368
367
368
368
368
368
368
367
366
364
363
360
357
355
352
349
345
342
340
340
338
337
335
336
335
335
335
335
334
334
333
330
330
328
327
324
323
322
319
318
318
317
317
318
318
319
321
321
320
322
321
321
321
320
318
317
315
315
315
314
312
312
311
311
313
314
316
317
319
320
321
321
321
321
321
320
319
318
318
316
316
315
314
314
316
317
317
320
321
321
322
324
323
324
324
322
320
319
318
317
315
316
317
320
321
324
325
327
329
329
329
328
328
327
325
325
324
322
323
323
323
324
325
325
326
327
329
329
329
330
330
329
329
329
327
328
329
328
328
327
327
328
327
324
324
324
323
323
324
325
326
327
327
328
328
329
329
329
329
329
329
328
327
328
325
325
323
323
323
323
324
322
323
323
324
325
327
328
329
331
331
332
332
332
330
330
327
326
325
323
323
321
321
321
323
324
325
326
327
329
328
329
330
328
328
327
327
327
325
325
325
326
325
326
326
327
328
329
330
331
331
332
331
330
330
327
327
324
323
323
322
323
324
325
325
327
328
330
331
332
334
334
333
333
333
331
331
330
330
330
329
329
329
329
329
329
328
329
329
329
329
330
330
331
332
331
331
331
331
331
330
330
330
328
328
328
330
332
331
332
333
333
334
335
335
335
334
334
332
330
330
330
329
328
326
327
328
329
330
332
334
336
337
339
338
339
338
336
335
333
332
330
328
328
328
328
329
331
332
335
336
337
340
341
343
345
345
346
347
348
348
349
349
348
348
348
349
350
350
350
349
349
346
345
344
344
345
347
350
353
358
360
363
366
366
368
366
366
361
357
353
347
343
339
337
335
334
334
336
336
337
339
341
341
342
341
341
341
339
337
335
334
330
327
326
325
325
325
326
328
328
329
330
329
329
328
326
326
324
323
322
322
322
321
321
322
322
323
325
327
329
330
330
330
331
330
329
327
327
326
324
325
323
325
324
324
325
326
327
328
328
327
323
320
313
307
301
296
292
290
290
293
301
315
334
358
385
415
450
486
524
562
598
633
659
662
662
663
662
661
658
639
597
535
456
368
277
190
114
57
21
8
22
59
117
187
266
345
416
474
514
534
531
506
467
414
355
294
238
194
162
147
148
165
195
237
284
331
374
410
435
447
444
431
406
373
336
298
264
234
215
205
207
217
238
265
294
324
352
376
392
399
398
389
373
352
327
304
282
265
253
247
248
256
270
288
307
327
345
359
369
375
374
368
358
343
328
312
298
287
280
275
278
282
291
301
314
326
339
348
355
358
357
354
347
338
327
317
308
300
296
294
294
298
304
312
320
331
339
344
350
351
350
347
342
335
328
322
315
311
308
306
307
309
313
320
325
333
339
342
347
349
349
347
343
339
334
329
325
321
320
319
318
321
324
328
333
336
341
343
347
348
347
346
344
342
339
336
334
332
330
331
331
335
337
340
342
346
348
350
351
351
351
352
351
349
348
347
347
347
347
347
349
349
350
352
353
355
357
358
362
363
364
363
363
362
362
360
360
358
358
358
357
359
359
360
361
364
366
366
368
369
370
369
369
367
366
363
361
359
357
357
354
351
350
349
348
348
347
346
345
344
343
342
341
338
336
332
331
328
325
322
320
318
316
316
316
317
316
317
318
318
317
317
317
314
312
310
308
305
303
301
302
302
303
303
305
307
307
309
309
311
310
309
308
307
305
303
301
301
301
302
302
304
304
305
307
308
307
308
308
309
308
307
306
306
305
305
303
305
305
304
306
307
307
309
310
311
310
310
310
310
311
309
310
310
309
309
308
310
310
311
311
312
312
314
315
316
316
317
318
317
316
317
315
314
315
313
313
312
313
312
313
314
314
314
316
317
317
317
317
318
318
317
317
318
319
320
320
320
321
322
322
322
323
324
324
325
324
323
323
323
322
321
320
320
318
318
317
318
319
319
320
320
322
322
323
323
324
323
323
323
322
322
320
319
318
315
316
314
314
315
317
317
319
320
320
322
323
323
322
322
321
320
318
317
317
316
316
316
317
318
319
319
320
321
322
322
322
322
321
320
320
320
320
318
320
319
319
319
319
320
320
320
318
318
317
317
317
316
317
316
317
319
320
322
323
324
324
326
325
325
324
323
322
320
319
318
318
317
317
317
319
321
322
323
325
328
328
327
328
327
326
325
324
323
322
321
321
322
321
321
321
322
322
323
323
323
323
324
323
323
323
323
322
322
323
323
323
323
324
324
324
324
325
325
326
325
327
330
331
334
336
339
341
344
345
346
345
344
343
341
340
335
332
330
328
329
331
333
338
343
348
353
356
359
361
362
362
361
357
353
346
341
333
329
325
322
322
321
322
325
327
332
333
336
337
338
337
334
332
328
323
319
316
313
310
310
310
311
314
317
321
324
326
326
327
327
324
322
318
315
313
310
308
307
306
308
310
312
315
319
321
323
325
326
325
324
321
319
317
314
313
312
310
312
313
314
317
319
320
323
325
326
325
324
321
315
308
301
295
289
286
284
285
290
300
315
333
356
382
410
440
473
504
536
569
597
626
651
660
661
661
658
647
616
565
497
418
331
247
170
105
59
33
29
47
84
137
200
270
336
398
447
478
492
487
463
427
381
330
280
234
198
176
166
172
189
218
254
294
334
368
397
414
420
415
400
376
347
316
284
258
235
222
217
221
233
253
275
302
326
348
365
375
378
375
366
350
333
314
295
278
267
259
256
258
264
277
290
306
322
334
345
352
354
352
345
336
325
313
302
292
284
280
278
281
288
296
305
315
325
334
339
344
344
342
336
330
322
314
308
301
296
293
292
293
296
302
308
314
321
328
331
335
336
336
335
331
327
322
317
313
310
307
306
307
308
310
313
318
322
326
328
330
331
331
330
329
325
321
318
315
312
312
312
313
314
318
321
325
329
332
335
337
337
336
334
333
330
327
325
323
320
320
321
321
322
325
329
331
335
338
340
342
342
341
340
339
335
334
332
330
330
330
331
333
336
339
341
343
345
347
348
348
347
346
344
342
342
339
339
339
340
342
344
346
349
353
354
356
357
357
356
355
353
352
349
346
344
342
341
338
337
336
336
336
336
337
336
335
335
333
332
330
327
325
322
320
318
315
313
310
310
309
306
307
306
306
304
304
304
302
301
299
299
296
295
296
295
294
294
295
295
295
296
295
295
295
294
291
291
289
288
286
285
286
284
285
286
285
286
287
287
288
289
290
289
290
291
291
292
292
293
292
292
292
292
290
291
288
289
288
287
288
288
289
288
288
290
290
290
293
293
293
293
293
292
291
291
289
289
291
290
290
292
293
294
295
295
296
296
296
295
296
294
295
295
295
294
295
296
295
295
296
296
295
294
295
296
296
296
295
296
297
297
297
298
298
298
299
300
301
300
301
301
302
302
302
302
301
300
301
300
299
298
298
298
299
300
300
300
302
302
302
300
300
299
298
297
296
297
297
296
297
298
299
300
301
301
304
303
304
304
303
302
301
297
297
295
294
295
295
295
297
297
299
301
300
301
302
301
301
299
299
296
295
294
293
292
292
294
295
297
299
302
303
305
307
306
307
305
304
301
300
298
296
294
294
293
294
295
298
299
302
303
305
304
306
305
305
304
302
300
298
296
294
295
295
296
299
301
304
305
307
309
308
308
308
307
306
303
302
301
301
299
299
298
298
299
300
302
303
304
306
307
307
307
306
307
305
305
304
302
302
301
301
301
303
302
304
305
306
308
309
310
311
310
309
308
307
307
305
305
304
303
302
302
302
302
305
305
306
308
309
309
309
310
311
310
310
310
311
309
309
308
308
308
307
307
308
307
306
307
309
310
310
312
316
317
319
321
322
325
325
327
327
328
328
329
329
329
330
329
327
326
324
323
323
322
323
326
327
330
335
339
342
344
345
346
346
345
341
339
334
328
324
320
316
313
312
312
313
315
318
320
323
324
325
326
324
323
321
319
314
312
307
303
301
300
299
300
302
304
309
312
313
316
318
317
317
317
314
313
309
308
307
305
304
304
305
305
306
308
309
312
314
314
315
314
313
313
312
311
309
309
309
309
311
311
314
315
316
318
319
319
318
316
314
308
304
296
290
284
280
278
276
278
285
295
311
333
357
386
420
455
492
532
569
606
640
660
662
663
663
662
660
651
620
568
496
412
320
227
143
74
24
0
0
26
74
138
214
296
373
440
491
521
532
521
490
444
388
329
269
217
177
151
142
150
172
207
251
299
345
385
417
436
443
436
419
391
356
318
282
250
223
207
201
205
220
241
267
298
328
355
377
390
396
393
383
366
344
321
297
276
260
249
245
247
258
272
290
310
329
347
359
369
372
370
364
351
338
323
306
293
282
277
273
276
282
291
304
318
332
343
353
358
361
359
354
346
336
324
312
303
295
290
289
290
295
301
310
319
330
339
345
351
352
351
349
344
337
330
322
316
312
308
307
307
311
316
322
329
335
341
345
349
349
349
349
345
341
337
332
328
325
323
321
322
324
326
330
333
336
339
342
343
344
345
343
342
341
339
338
336
334
334
333
334
336
338
339
342
343
344
348
349
350
351
352
352
352
351
351
352
351
350
351
351
351
353
354
355
356
359
359
361
362
362
363
362
364
362
364
363
365
366
367
367
368
368
369
369
370
370
370
370
370
369
370
370
370
369
368
366
364
363
361
358
355
354
353
351
351
350
348
348
347
345
343
342
340
338
337
336
335
333
332
330
329
328
325
324
322
320
320
318
317
316
315
314
315
314
314
315
314
314
313
313
311
308
308
306
305
303
304
304
304
305
307
310
310
312
312
313
314
312
311
310
308
305
305
303
303
301
301
301
302
302
303
305
306
309
310
311
311
312
313
311
311
310
309
309
307
306
306
306
305
306
308
307
310
310
311
313
313
315
315
315
314
314
314
314
311
312
311
312
312
313
313
314
314
315
316
317
319
319
319
320
319
320
318
317
316
315
314
314
313
313
314
313
315
316
317
319
318
320
320
321
320
320
320
319
319
319
319
318
319
320
321
321
322
323
324
325
324
324
324
323
323
322
321
320
318
319
317
319
319
319
320
321
321
321
322
322
323
323
323
323
322
321
320
320
320
320
321
320
320
321
322
323
324
325
325
326
325
326
324
324
323
323
321
321
321
321
321
322
322
323
324
324
325
327
327
327
327
326
326
325
324
323
322
322
321
322
323
324
325
325
327
328
327
327
327
325
324
324
322
320
320
319
320
320
320
322
325
325
326
328
328
327
326
327
326
327
326
326
327
328
327
328
328
329
331
332
333
334
335
334
333
332
332
329
326
324
322
321
320
321
321
324
326
329
332
335
336
336
337
338
337
336
334
332
330
329
328
326
326
326
326
327
328
330
330
331
332
332
334
334
334
334
334
333
332
332
332
331
330
331
329
330
330
329
331
332
332
334
337
338
339
339
339
340
339
338
336
335
336
335
336
335
334
334
336
335
336
336
337
337
338
340
342
345
348
350
352
355
356
357
358
357
357
355
354
352
349
347
345
344
342
343
345
349
354
358
363
368
371
374
375
374
374
371
367
362
356
351
345
341
338
336
337
338
341
344
349
351
355
356
354
354
352
348
343
339
335
330
329
326
325
326
328
331
334
338
341
341
342
342
340
339
336
333
330
330
327
327
326
328
330
331
334
334
337
337
338
339
338
338
336
334
333
333
332
330
331
332
332
334
336
337
340
340
341
343
343
342
341
338
333
329
322
317
312
308
306
305
308
312
321
332
349
371
396
422
452
483
514
547
578
607
634
658
661
662
662
661
659
646
614
562
492
413
326
242
166
105
62
42
43
64
108
165
233
305
375
436
483
512
521
509
483
442
392
338
288
242
208
188
182
189
211
242
283
323
364
400
427
441
447
438
421
394
362
330
298
270
251
239
237
244
259
280
304
330
355
377
394
404
405
398
386
369
349
328
308
292
280
273
272
276
288
300
316
333
349
362
372
378
378
377
369
358
346
334
321
312
305
301
301
303
310
317
328
338
349
357
364
367
368
365
360
352
346
336
330
324
320
317
317
321
324
331
338
344
350
355
358
360
360
359
357
353
348
345
341
337
335
334
332
334
335
337
340
343
347
350
352
355
354
354
354
352
350
349
346
344
343
341
339
340
340
342
343
345
348
351
354
356
357
358
357
356
356
355
354
352
351
351
351
351
351
353
354
356
357
359
362
363
363
364
363
364
363
363
363
360
361
359
359
359
359
361
362
362
363
364
366
367
368
371
372
373
373
374
374
373
373
373
372
372
372
370
371
371
372
372
373
375
375
375
376
376
376
376
377
375
375
375
374
373
371
369
369
366
365
362
360
359
358
356
354
355
353
351
349
347
346
345
342
341
339
337
337
336
336
336
334
334
334
334
334
332
331
329
328
326
325
324
322
320
320
318
317
318
318
319
319
319
320
319
320
319
319
319
319
318
320
319
319
320
320
320
320
319
318
317
317
318
317
316
317
317
317
315
317
316
316
316
316
316
317
319
321
324
326
329
329
332
331
330
329
327
326
324
321
321
320
317
317
317
317
318
320
323
326
327
329
330
332
332
331
331
331
330
329
328
328
329
328
327
327
328
328
329
330
330
331
332
331
331
331
330
330
330
329
328
328
327
328
327
328
329
329
329
330
330
331
330
331
331
330
330
331
330
330
331
330
329
330
330
332
332
332
331
331
331
330
329
327
327
327
327
328
328
329
330
331
332
333
333
334
334
334
335
333
333
332
331
330
330
330
330
329
330
329
329
329
330
332
333
334
334
335
335
336
335
334
331
329
327
326
324
325
325
326
328
329
330
333
333
334
335
336
337
335
336
334
333
333
330
329
327
326
327
326
327
327
329
330
332
335
338
339
341
342
342
342
341
341
339
336
334
332
331
329
328
328
328
329
331
333
335
337
338
339
340
340
340
338
337
336
335
334
334
333
332
332
334
336
337
338
339
342
342
341
342
341
340
340
338
337
337
336
335
334
335
335
336
338
337
337
338
339
339
341
340
341
340
339
339
339
339
339
338
339
338
339
339
338
339
338
340
339
339
339
339
340
341
341
341
342
343
346
348
351
353
357
360
362
364
363
363
364
362
361
358
355
353
350
348
348
348
349
353
356
362
366
371
375
377
378
379
377
375
372
368
362
357
353
349
345
344
343
345
345
348
351
354
357
358
358
356
355
353
349
345
339
335
331
328
325
324
325
327
329
333
337
343
346
349
350
350
349
347
344
340
335
332
329
324
323
324
323
325
329
332
335
339
344
346
350
351
350
349
346
345
340
337
334
331
329
328
328
330
333
337
340
344
346
347
347
343
339
331
323
315
309
302
299
300
301
309
323
342
365
393
425
458
496
532
570
607
640
661
662
663
663
662
662
661
652
622
571
501
417
328
237
157
90
42
19
23
51
101
169
245
325
401
466
514
544
550
536
502
455
397
335
277
225
186
162
156
166
191
229
274
321
367
409
439
459
463
456
435
406
368
330
293
261
236
221
216
223
237
261
290
322
351
377
399
412
417
412
399
380
357
333
307
285
270
261
259
262
274
289
308
328
348
366
378
383
385
381
373
359
345
329
314
301
294
289
289
294
302
314
327
340
353
362
369
372
372
368
361
352
342
331
322
314
309
306
306
310
317
324
333
344
352
358
362
366
365
362
357
350
343
336
330
325
320
320
320
324
327
334
339
346
350
354
358
360
359
357
354
349
344
338
335
332
329
327
327
329
333
337
340
344
348
351
354
355
356
355
355
353
350
347
345
343
341
340
341
340
343
345
349
352
356
359
362
362
363
364
361
360
358
355
353
352
350
350
351
354
357
360
363
367
369
371
374
373
373
373
371
371
369
367
367
366
365
366
366
367
370
372
375
377
379
380
380
381
380
380
379
377
375
373
372
372
371
371
369
370
369
369
367
366
363
361
359
356
353
350
348
346
344
344
341
342
339
339
338
336
336
335
334
331
331
328
327
326
325
324
325
323
323
324
323
323
322
322
322
322
321
319
319
317
316
315
312
312
311
312
312
312
314
315
317
317
318
317
318
316
315
314
314
313
311
311
311
312
312
313
314
314
315
317
316
317
318
317
318
318
318
317
315
314
313
313
312
313
311
313
312
313
315
316
318
319
320
323
322
324
324
324
322
321
320
318
318
316
316
316
316
317
316
318
319
320
322
325
327
328
329
329
330
330
328
327
326
326
325
324
324
321
322
320
319
319
321
322
322
324
324
327
327
330
330
331
330
331
329
329
328
327
327
326
326
327
326
326
327
327
326
328
326
325
325
324
324
324
323
324
324
325
326
327
328
330
330
330
330
330
329
329
327
326
325
324
323
324
324
324
324
324
326
327
328
327
327
329
328
327
325
326
324
324
324
323
323
323
323
324
326
327
326
328
329
329
329
329
331
329
329
328
327
328
326
327
327
325
325
326
328
328
329
331
330
331
331
330
329
329
328
328
325
325
325
325
327
327
328
329
331
332
331
331
331
330
330
330
328
328
328
328
329
329
329
329
330
329
330
328
327
327
326
326
327
326
326
327
327
329
329
330
331
332
333
332
333
332
331
331
331
332
331
332
333
333
334
334
334
333
333
333
332
332
332
332
333
334
336
336
338
339
342
344
346
347
348
348
349
348
349
347
346
345
344
345
345
345
344
344
343
346
347
350
354
359
362
365
368
370
369
368
367
364
361
356
352
347
344
341
337
334
333
333
333
333
335
339
342
343
347
348
349
350
348
345
341
338
333
329
325
321
320
320
320
321
322
324
328
330
331
333
333
332
332
330
329
328
325
325
324
323
321
324
326
327
330
331
331
333
334
332
332
332
333
333
331
332
333
333
333
332
333
333
333
333
332
332
332
331
330
327
322
319
314
310
309
307
309
312
320
332
348
369
394
421
450
481
513
547
580
610
639
659
661
662
662
660
657
640
602
547
475
394
310
230
159
102
65
49
54
81
125
185
251
321
386
442
482
504
506
492
462
422
375
326
280
239
209
193
190
201
221
251
287
324
360
391
415
428
432
426
410
385
357
327
299
274
256
244
240
246
260
277
300
324
347
367
383
393
395
392
383
368
352
333
315
302
293
287
285
291
298
309
322
335
347
356
362
365
364
361
354
345
337
327
319
311
307
304
305
308
314
321
328
338
345
353
357
361
361
359
355
348
339
332
327
321
318
316
316
319
324
329
335
339
345
351
354
355
356
354
352
348
344
341
335
331
328
327
326
329
332
338
343
348
353
357
361
362
361
358
354
350
347
343
340
338
338
340
342
344
348
349
352
354
355
356
355
354
353
351
349
347
345
346
347
348
350
352
356
357
360
361
364
363
363
362
361
360
358
356
356
355
356
355
356
357
360
362
364
367
371
372
374
375
373
373
371
370
369
370
369
370
371
373
375
377
376
378
377
376
375
375
374
374
373
372
371
371
373
374
376
378
378
379
380
379
379
377
374
371
369
366
363
359
356
355
354
352
352
352
352
352
352
352
352
351
350
349
346
344
340
337
334
332
330
328
328
329
328
328
329
329
330
331
330
329
329
326
326
324
322
320
318
316
316
314
314
313
314
314
314
315
317
317
318
320
321
321
320
319
319
319
317
316
316
317
315
314
314
316
315
317
316
317
318
320
320
322
324
323
323
323
322
320
320
320
319
320
319
318
320
320
321
323
322
324
325
326
326
326
326
324
324
323
322
320
320
320
320
320
319
320
322
322
324
324
325
325
326
325
326
326
324
325
325
326
326
327
327
330
330
330
331
330
329
328
327
327
324
324
322
323
322
324
325
326
328
329
329
329
328
327
328
327
326
326
326
325
326
325
325
326
325
325
325
326
326
327
326
327
327
327
328
328
327
326
326
325
325
324
324
324
325
325
324
325
326
327
326
327
328
330
331
330
330
331
329
328
326
326
324
321
320
319
319
318
320
323
325
328
331
334
335
335
336
335
333
330
328
326
324
321
320
321
321
323
323
324
326
327
330
331
332
333
333
333
331
330
328
327
325
324
323
323
323
322
322
322
325
326
329
331
333
334
335
335
334
333
331
328
327
324
323
321
321
321
322
324
326
329
331
331
334
335
336
335
336
336
334
333
332
332
331
329
329
330
330
330
330
331
331
333
334
333
334
334
333
333
332
333
333
332
331
331
331
331
331
331
331
331
331
332
334
335
337
338
340
343
346
348
351
354
354
355
356
354
354
352
351
348
346
343
342
339
340
339
342
345
350
356
359
364
365
368
368
368
365
361
357
353
348
344
339
336
334
334
333
334
334
336
339
340
341
342
342
342
342
341
338
335
333
328
325
322
320
320
321
321
324
326
330
331
333
334
335
335
334
333
331
330
328
325
323
320
320
319
320
320
321
324
324
326
327
328
329
330
329
329
328
327
327
326
326
325
325
324
324
325
325
325
325
324
323
321
316
312
308
303
299
295
294
294
296
304
319
337
361
389
421
456
494
534
573
613
649
661
662
664
663
662
661
657
639
596
531
451
359
266
176
98
39
5
0
15
59
124
203
288
369
444
501
538
552
545
514
467
410
346
281
223
179
147
135
140
164
198
244
293
342
385
422
444
454
450
433
405
369
329
290
254
226
208
199
203
218
240
269
301
333
362
385
401
405
402
392
372
348
322
297
275
256
245
240
245
255
271
291
311
333
351
365
373
376
375
367
354
339
324
307
292
282
275
272
273
280
288
302
314
328
339
347
354
356
354
350
342
333
323
312
303
295
291
289
289
294
299
306
314
324
332
337
341
343
342
340
335
328
321
314
306
303
299
300
300
304
309
315
322
329
333
338
342
342
340
339
333
329
325
320
317
315
312
312
315
316
319
324
326
331
334
334
335
335
334
332
330
327
324
322
321
320
321
322
323
325
327
330
331
335
336
338
338
337
338
337
337
335
334
333
331
330
330
331
332
332
334
335
337
339
341
341
344
344
346
346
347
346
347
347
345
345
345
344
343
342
342
342
341
343
344
344
345
346
347
349
347
348
346
344
343
341
339
336
334
332
330
328
325
325
323
321
320
320
317
316
314
313
312
309
307
305
302
300
299
296
295
293
293
292
292
292
291
290
290
291
288
288
287
284
283
279
277
274
274
272
271
269
269
271
270
272
273
274
275
276
275
274
273
272
269
267
266
263
262
262
262
264
266
267
269
271
272
272
272
271
270
269
266
265
263
262
261
260
261
262
263
265
266
268
269
270
270
268
269
267
265
265
264
264
262
261
260
261
261
262
262
263
264
266
267
266
268
268
267
269
267
268
266
266
266
266
264
264
264
264
263
262
261
261
260
260
262
261
263
265
264
264
266
265
266
266
266
265
264
262
261
260
260
259
259
260
261
262
264
266
268
270
271
271
270
267
266
264
262
259
259
257
256
256
256
257
258
258
260
260
261
260
262
262
262
262
262
262
261
260
259
259
259
259
259
259
258
258
258
258
257
256
256
256
255
254
254
253
254
254
254
256
257
258
258
257
258
258
259
258
257
257
256
255
256
254
254
256
255
255
255
256
257
257
256
257
257
256
257
257
256
256
257
257
256
257
257
256
256
256
255
256
255
253
253
253
254
253
254
254
255
255
254
254
254
254
254
254
254
253
252
252
253
253
255
255
256
257
258
258
258
259
259
259
258
256
256
256
253
255
254
253
254
254
255
257
259
261
264
268
270
271
274
274
275
275
274
272
269
267
265
262
261
259
260
261
263
268
272
276
283
287
290
291
292
290
289
285
281
276
269
265
260
257
255
253
254
256
258
260
263
266
267
268
267
266
264
262
260
257
254
250
247
246
244
244
244
244
245
247
249
252
252
254
255
256
254
253
252
251
249
249
248
248
247
247
247
248
249
249
251
251
251
252
253
253
253
254
252
252
254
253
253
253
253
252
252
253
255
254
253
253
250
248
244
239
234
229
226
224
224
227
233
241
254
270
292
316
343
373
405
438
471
504
535
564
589
614
633
644
639
616
573
510
432
342
247
157
80
18
0
0
0
17
53
103
161
223
284
336
377
404
414
406
383
349
306
262
217
179
148
131
128
134
152
180
214
250
282
313
336
348
352
345
331
309
281
254
225
202
185
173
170
177
191
208
233
256
279
298
312
320
321
315
303
288
271
252
234
219
208
203
203
210
220
233
248
262
277
289
298
303
305
300
294
285
274
263
252
243
237
235
235
239
245
253
262
270
279
286
290
292
292
289
283
278
270
264
259
254
251
251
254
257
263
269
276
280
286
289
292
292
290
286
281
276
271
266
261
259
259
259
262
265
270
275
278
283
287
289
289
289
287
284
282
277
275
273
270
270
271
274
275
280
284
286
289
292
293
294
294
293
291
290
288
287
285
285
284
284
287
287
290
292
294
295
297
298
298
297
298
298
299
298
298
300
300
301
301
304
305
304
305
306
308
307
306
305
304
303
303
303
304
305
309
313
316
320
323
326
327
330
329
329
326
325
323
321
320
319
319
318
320
319
323
324
326
327
328
329
329
328
325
324
322
320
317
314
313
310
308
306
305
304
302
302
300
300
299
297
297
297
298
297
296
296
295
294
294
291
291
290
287
286
284
283
281
281
280
281
280
281
282
283
283
284
285
286
287
287
287
286
287
286
285
284
284
284
283
284
284
283
282
283
283
285
285
285
286
286
288
289
291
292
292
295
293
293
293
293
292
290
290
290
291
292
295
297
300
301
303
306
307
307
307
307
306
304
304
303
303
303
303
304
306
306
307
309
309
309
310
310
309
309
310
310
310
311
313
314
316
316
317
317
319
318
319
319
319
319
318
318
318
318
317
316
316
318
317
319
320
321
323
325
326
328
329
330
330
331
329
328
326
325
323
322
321
323
323
325
327
330
331
333
336
337
337
336
336
334
334
333
332
331
329
327
326
326
326
326
327
328
329
330
330
332
333
333
333
334
333
334
334
335
336
338
340
341
342
342
342
342
341
340
340
339
338
336
335
337
336
338
339
340
341
343
345
347
348
349
350
351
350
350
348
346
345
343
344
344
344
346
349
351
354
355
356
357
357
357
355
355
352
349
347
347
345
346
347
350
351
355
358
359
362
364
365
365
366
365
364
364
364
363
361
361
361
361
361
361
363
363
364
365
368
368
372
374
377
379
382
385
388
389
389
389
388
387
387
385
383
383
380
379
378
378
379
381
385
387
391
395
399
401
402
402
401
400
397
394
390
386
383
379
377
377
377
378
378
380
382
383
385
386
388
388
388
387
387
384
382
378
375
372
371
369
367
368
367
368
371
375
378
381
382
383
383
383
381
379
375
373
371
368
368
367
367
368
370
372
373
376
380
382
384
385
386
386
384
383
382
380
379
380
379
380
381
383
384
384
384
382
381
377
371
365
360
355
350
348
347
348
354
365
383
404
431
460
495
532
570
609
646
663
662
662
663
663
664
664
663
662
658
638
594
530
453
368
282
202
137
93
73
80
113
168
240
321
402
478
540
584
607
606
585
546
491
432
367
309
260
224
205
204
219
248
289
336
386
433
471
498
515
516
502
480
447
410
370
334
304
282
270
270
279
299
325
354
386
414
438
455
464
464
455
439
418
394
369
347
330
316
309
311
318
332
350
370
391
410
426
436
442
441
434
424
411
396
379
366
354
347
343
345
350
358
370
382
394
407
416
421
424
424
420
414
406
396
387
378
370
365
362
362
366
371
378
386
394
402
408
413
415
415
412
409
403
398
393
388
383
379
378
379
380
385
387
393
397
402
405
407
410
410
409
407
405
402
400
397
395
393
393
392
393
395
396
400
402
407
409
411
413
413
413
412
410
409
408
407
407
406
406
407
408
408
410
411
413
416
416
418
419
420
421
421
420
421
420
421
421
421
423
424
425
425
426
427
427
429
429
429
430
430
431
431
433
433
433
434
435
437
439
439
439
439
438
438
436
435
435
434
434
434
434
433
433
434
434
434
433
433
433
432
432
431
429
427
424
421
419
415
412
409
406
404
403
402
403
402
403
404
403
403
402
402
399
397
395
392
391
387
385
383
382
381
380
382
381
382
384
385
386
388
388
389
388
387
385
383
381
379
378
377
376
376
377
379
380
383
384
386
385
387
386
386
387
386
386
386
384
384
384
383
383
383
381
381
380
381
381
379
380
379
379
379
379
379
380
381
381
381
382
381
382
381
381
381
379
380
380
380
381
381
382
384
384
384
384
386
386
386
387
386
385
385
385
384
383
383
382
381
379
380
381
383
385
387
390
391
393
394
393
393
393
393
391
390
389
385
383
381
380
379
378
380
380
384
385
388
390
392
392
393
392
390
389
387
384
384
383
382
382
381
382
382
384
385
386
388
389
389
390
391
391
389
389
389
387
386
385
383
383
383
382
383
384
385
386
386
387
388
386
387
386
386
385
385
384
383
382
380
379
379
378
378
379
379
381
382
383
385
385
386
385
385
385
385
385
384
384
384
383
383
383
383
383
383
383
384
384
384
385
385
387
388
389
390
392
394
395
398
400
402
403
404
405
404
404
402
402
399
396
395
392
391
390
391
392
394
399
402
406
409
412
414
416
417
414
413
410
406
400
396
391
387
382
380
378
378
378
379
382
384
386
388
390
391
391
390
389
387
384
382
379
375
374
372
371
370
370
371
372
373
374
374
375
376
375
375
374
372
372
370
368
368
367
367
366
367
367
367
366
367
367
367
368
368
369
369
370
372
373
372
373
374
375
375
374
375
375
376
375
374
371
367
361
356
351
345
341
339
338
340
345
353
368
386
409
435
464
495
526
560
596
630
658
662
662
663
663
663
663
660
654
629
583
519
445
365
284
210
150
108
85
84
107
147
204
273
344
415
475
520
548
555
544
516
473
422
368
315
269
234
212
205
213
235
268
308
349
389
425
453
469
474
468
449
423
391
357
324
296
275
262
259
265
280
300
325
352
379
402
418
428
430
425
414
396
375
354
334
315
302
295
295
298
308
322
339
356
373
388
398
404
405
402
393
383
369
355
341
331
321
317
317
322
328
339
350
362
373
382
389
392
394
389
384
377
367
357
348
339
335
332
333
336
341
349
358
367
374
381
386
388
389
387
381
375
368
361
355
349
346
344
345
346
349
355
361
366
372
375
377
380
379
377
375
371
368
364
361
359
357
356
357
358
361
364
367
371
374
378
380
381
382
382
381
380
379
378
376
376
376
376
376
377
376
376
378
378
378
380
380
381
382
383
383
383
385
384
385
386
388
388
388
390
389
390
389
390
389
390
389
389
389
389
389
390
393
394
395
397
398
399
400
400
401
400
399
399
397
396
395
393
393
393
392
392
393
392
392
393
393
391
390
388
387
385
381
378
376
373
371
369
369
367
367
367
365
364
363
360
359
357
353
352
350
349
347
348
348
348
348
349
348
348
347
346
347
345
344
343
342
342
340
339
340
338
339
340
340
341
341
341
343
342
341
342
341
342
342
342
342
342
342
341
342
341
339
338
337
336
334
334
335
335
334
335
336
335
335
336
336
337
337
339
339
341
342
343
343
344
343
342
342
342
341
340
339
339
340
340
340
340
341
341
343
343
344
344
345
345
345
346
346
345
345
344
345
345
344
345
346
345
347
346
347
348
347
346
347
348
346
347
348
348
348
349
349
349
350
349
348
348
347
347
346
346
345
345
345
346
345
346
346
347
347
348
349
349
349
351
350
351
351
351
351
350
350
348
348
348
348
348
349
349
348
349
349
349
349
349
349
349
348
348
349
348
347
348
348
347
347
348
347
349
348
349
348
348
348
347
346
345
344
344
343
344
344
345
346
347
348
349
349
349
349
347
348
347
346
347
348
348
348
351
350
350
350
348
348
346
345
345
344
344
345
344
344
345
346
347
348
348
349
349
348
348
347
345
343
342
341
342
342
342
341
342
344
345
346
346
347
346
346
347
347
347
346
346
347
346
348
348
351
352
355
357
359
362
363
365
366
366
365
365
363
362
361
359
358
356
354
354
353
352
353
354
358
362
365
368
372
375
379
380
379
379
376
373
369
365
361
357
353
348
347
346
346
345
345
345
348
349
351
353
355
356
358
357
357
357
354
351
347
345
341
338
337
336
337
337
339
342
344
345
348
349
348
349
347
345
343
341
338
337
335
334
334
333
334
336
337
339
339
341
340
341
340
339
338
337
336
335
336
336
336
337
337
338
339
340
339
337
335
332
327
323
320
318
316
315
319
325
336
352
372
396
424
454
488
523
560
597
631
659
662
662
663
663
662
661
653
623
572
503
423
337
250
172
109
65
43
46
72
120
183
257
334
406
468
513
539
545
530
498
452
397
338
283
235
200
179
173
185
209
246
288
333
376
413
441
455
459
450
430
401
367
329
295
266
244
231
227
235
251
273
301
331
360
384
402
414
417
412
398
382
360
336
313
294
280
271
268
273
283
298
315
334
352
368
380
387
389
386
378
366
353
338
322
311
301
296
295
299
305
316
327
340
352
362
370
376
378
375
370
361
352
341
331
323
318
314
313
316
320
327
334
341
349
355
360
362
363
360
357
351
345
339
334
330
328
327
327
330
334
338
342
347
352
355
358
359
360
359
358
354
352
348
345
343
341
341
341
342
346
349
351
355
358
359
361
362
362
362
361
359
357
355
353
351
349
349
350
350
352
354
356
359
362
364
366
367
367
366
365
363
361
359
358
357
358
357
358
360
361
364
366
368
369
371
371
373
374
373
373
373
372
370
371
370
370
371
370
371
372
373
373
374
376
375
375
376
374
374
371
371
369
368
367
366
365
364
363
362
362
361
361
360
358
357
356
354
351
349
347
345
342
340
339
337
335
335
333
332
333
333
332
331
332
330
329
329
329
328
328
326
325
324
321
318
317
313
312
310
307
308
307
308
311
312
316
319
322
322
324
323
323
322
320
317
314
311
308
305
304
304
305
307
310
313
318
320
323
325
325
326
324
320
317
314
310
307
305
304
304
304
307
310
314
318
320
324
326
326
325
324
323
320
317
314
311
308
307
305
306
308
309
310
313
315
318
321
323
325
326
325
324
323
321
319
316
314
313
311
312
312
311
312
312
315
315
317
319
320
322
325
326
327
328
328
325
325
323
320
318
316
315
315
315
315
317
319
322
325
327
328
329
328
328
326
325
322
319
317
316
315
315
316
317
318
320
320
322
323
324
325
324
322
323
321
320
319
318
317
317
317
319
319
320
322
322
323
322
322
323
321
322
321
322
321
320
320
319
318
318
318
318
317
316
317
317
317
317
319
318
319
318
319
318
319
320
319
319
317
317
315
314
314
314
314
316
317
318
320
322
324
325
327
327
328
326
325
326
324
322
321
320
320
320
320
322
322
324
327
329
330
332
333
336
337
336
338
338
338
337
338
335
335
333
332
330
330
330
332
335
337
341
343
346
349
350
352
351
348
344
339
336
331
327
324
323
322
323
323
326
326
328
329
329
328
327
325
323
321
319
316
313
312
311
311
309
311
311
313
315
316
317
318
318
318
318
317
315
315
315
314
313
313
312
314
312
312
312
311
312
311
311
311
311
311
312
312
313
313
313
313
314
315
316
315
315
316
317
317
318
318
318
317
314
313
308
304
298
292
288
285
285
287
292
298
309
324
343
365
393
420
451
483
516
549
582
612
638
659
661
661
661
655
633
591
531
456
370
284
202
130
75
41
28
35
64
111
169
239
308
372
427
466
489
490
475
445
401
351
300
250
209
179
163
161
174
199
232
272
312
349
381
405
416
416
405
385
355
323
290
260
234
216
208
208
218
236
261
288
314
341
361
376
383
382
374
360
341
318
298
278
261
250
247
248
255
268
284
301
319
337
349
358
362
360
354
344
329
314
298
286
275
268
267
268
276
285
297
311
324
335
344
350
351
349
344
336
326
316
307
298
291
287
286
288
292
298
306
316
323
331
338
341
344
341
339
333
326
319
311
305
301
300
301
302
306
313
318
324
331
335
339
340
341
340
337
332
329
324
319
316
314
313
315
315
318
323
325
329
333
334
336
336
336
335
333
331
328
325
324
322
322
322
325
327
330
333
338
341
346
350
351
352
352
349
347
344
341
338
337
336
337
337
340
341
345
347
350
355
357
358
359
361
361
359
358
355
353
352
351
349
349
349
350
351
353
354
357
358
360
361
361
360
360
359
359
359
359
357
356
354
353
352
350
349
348
347
346
344
343
342
339
337
335
332
329
326
323
323
321
320
319
318
317
316
317
316
316
316
314
315
314
312
312
310
309
308
308
307
307
306
306
308
307
307
307
305
303
303
300
299
297
298
297
298
300
302
303
305
307
309
309
309
309
308
306
304
304
300
298
295
294
293
292
293
294
295
296
298
301
304
305
307
308
308
309
308
308
307
305
303
303
302
301
300
299
300
300
301
304
305
306
308
309
310
311
310
309
308
307
305
305
304
304
304
303
305
305
307
308
310
312
314
315
316
317
315
313
314
312
309
308
307
306
306
305
304
304
306
307
309
310
312
313
315
315
316
314
313
312
311
310
308
309
309
309
308
309
309
311
310
309
309
309
308
307
306
305
304
302
302
302
304
304
306
309
311
313
315
316
315
315
312
311
309
306
305
303
303
301
302
303
305
306
308
310
312
313
313
314
311
312
310
308
305
303
301
299
298
298
298
300
300
302
304
306
308
308
310
310
309
309
307
307
305
304
302
301
301
300
301
301
302
302
303
305
305
304
305
303
303
302
303
302
302
302
303
302
303
304
305
305
305
304
305
304
303
303
304
303
303
302
302
302
301
301
299
298
296
296
295
297
296
299
299
301
301
304
302
304
304
302
302
301
301
301
300
301
301
303
303
306
308
311
315
316
317
318
319
318
316
313
309
304
299
297
295
296
300
305
312
319
327
332
337
340
341
338
336
330
324
316
308
302
294
290
288
287
287
289
294
298
302
307
312
315
317
316
314
311
307
301
296
291
287
284
283
282
283
286
289
292
296
300
302
304
304
303
301
299
298
296
293
291
288
288
287
285
285
286
287
286
287
288
291
292
293
295
296
295
295
294
293
290
289
288
287
287
287
288
290
291
292
291
289
287
284
281
277
276
274
275
277
280
288
299
312
332
353
377
403
432
462
493
524
556
583
610
635
654
659
658
647
615
564
495
416
330
243
166
100
52
26
19
34
66
116
174
238
303
361
409
442
456
454
433
399
354
307
258
215
180
156
148
153
168
196
230
268
304
337
361
377
383
379
366
344
318
292
265
242
226
216
214
220
231
247
267
287
306
324
336
343
344
340
331
318
301
283
266
252
241
234
233
237
247
260
275
292
306
318
328
334
334
330
323
312
300
288
276
267
261
258
259
263
269
277
285
296
304
311
316
319
318
316
310
302
295
286
279
273
269
269
270
274
279
288
295
302
308
313
316
318
316
313
309
303
296
290
285
282
280
282
285
289
294
300
307
311
315
318
320
317
314
310
306
302
298
294
293
291
294
295
299
303
307
310
314
315
318
317
314
310
306
303
299
296
295
294
296
298
300
303
307
312
316
320
322
324
326
325
323
321
319
315
311
308
306
307
306
307
311
314
316
320
322
327
329
333
335
335
336
336
334
333
331
328
327
325
325
326
327
328
331
332
334
337
337
338
338
337
337
336
336
335
335
337
336
337
338
339
339
339
338
337
335
331
328
325
322
318
316
314
312
311
311
312
313
314
314
313
314
313
310
309
306
302
296
293
288
285
283
283
284
285
286
289
291
294
295
296
297
296
293
289
286
283
279
277
275
274
273
273
274
274
275
276
278
279
281
282
283
284
282
281
281
280
280
279
280
279
279
278
278
280
280
279
279
279
279
280
278
278
278
278
277
276
277
277
278
280
280
281
283
284
284
284
284
286
286
285
284
285
285
286
288
289
289
290
290
290
290
289
290
288
287
287
287
286
287
287
286
287
287
288
288
288
289
289
290
290
288
288
288
288
289
289
291
290
291
291
290
289
289
289
290
289
289
289
290
291
292
294
296
297
299
300
301
302
299
299
297
296
295
293
291
289
287
287
288
289
290
294
296
297
300
301
302
303
302
302
301
299
296
293
290
288
286
285
285
287
289
292
294
299
302
305
306
307
307
307
304
302
299
297
296
295
294
296
298
300
302
304
307
308
309
311
311
311
308
304
302
299
296
295
295
295
297
299
301
304
309
311
314
316
316
318
317
314
312
309
307
304
303
300
301
301
304
306
309
312
315
319
321
324
327
328
328
328
327
326
325
325
324
324
322
321
321
321
320
320
322
322
324
328
332
336
339
342
345
345
346
346
345
343
339
337
332
328
324
322
318
316
315
316
317
319
321
323
326
328
329
330
329
330
327
323
320
316
313
311
308
308
309
310
313
315
320
323
325
327
329
329
329
327
325
323
318
315
312
311
309
310
310
313
315
318
321
323
325
326
328
328
327
324
324
323
320
321
319
318
319
320
321
322
326
327
329
332
333
333
332
327
322
315
308
302
298
295
294
297
302
310
324
343
366
392
421
453
487
522
557
591
624
653
662
663
663
662
660
659
643
606
551
479
397
311
227
154
95
53
35
42
67
115
176
246
321
389
448
493
518
524
510
482
440
390
337
286
243
210
189
184
193
215
249
288
331
373
407
433
449
450
441
421
392
358
322
289
259
239
227
226
236
254
280
311
340
368
392
409
419
418
410
395
374
351
326
305
285
271
265
265
271
283
301
321
340
360
376
388
395
395
390
381
368
352
336
321
308
298
292
292
294
302
312
325
339
353
364
373
381
383
382
378
370
361
351
340
331
323
318
317
317
321
327
334
344
352
360
367
371
373
373
370
364
358
351
346
338
335
330
329
331
334
339
344
350
355
361
364
368
370
369
368
368
365
362
359
356
352
351
351
352
353
355
357
361
364
368
370
373
374
374
374
372
370
368
366
364
364
363
365
367
369
373
374
377
380
381
383
383
382
381
380
377
375
373
372
371
370
370
373
374
379
382
387
390
393
395
398
398
397
396
393
390
387
385
383
381
381
383
384
387
390
393
395
399
402
404
404
405
405
403
401
398
394
390
387
384
380
379
377
376
377
376
377
377
378
379
380
379
377
376
374
371
368
365
361
358
355
352
351
349
349
350
350
351
352
352
352
351
350
349
347
345
344
341
341
340
340
339
340
339
339
339
338
339
337
336
336
335
336
337
338
339
340
344
345
346
348
346
346
343
340
338
336
332
331
330
329
328
328
329
330
331
332
334
336
337
340
340
342
342
341
342
341
341
339
339
339
339
337
337
336
337
338
338
338
340
340
341
341
342
343
342
343
343
342
342
342
342
341
341
343
342
342
343
343
344
346
345
346
348
348
350
351
351
352
353
354
353
353
353
351
349
349
348
347
346
343
342
342
342
343
344
347
348
350
353
354
355
357
355
356
355
353
352
351
351
350
349
347
348
347
347
347
349
351
351
352
354
355
355
356
356
357
356
356
355
353
352
352
349
348
347
349
349
351
354
357
359
360
363
363
364
363
361
360
356
353
351
349
348
348
348
351
354
356
359
362
363
366
366
367
366
366
364
364
361
360
360
357
356
355
354
355
356
358
361
363
366
368
371
373
375
376
375
374
374
373
372
370
369
370
370
371
374
376
378
380
383
384
386
387
387
385
384
383
381
380
379
379
380
383
385
389
393
396
399
403
404
406
404
402
400
394
389
384
379
374
372
369
369
372
374
376
378
381
384
387
388
388
388
386
385
383
380
377
375
372
370
368
368
368
369
370
371
374
376
378
380
380
381
380
380
379
377
375
374
373
371
372
373
374
377
380
382
383
386
387
387
388
386
386
385
384
382
381
380
379
379
379
378
380
383
383
385
386
387
386
383
380
376
369
363
358
355
353
353
356
363
373
387
408
430
456
485
516
549
580
613
644
661
662
663
663
663
662
663
661
660
648
613
561
493
419
339
264
197
146
113
102
114
148
199
263
333
406
471
523
560
575
572
551
514
468
413
358
308
268
238
226
226
243
272
309
352
396
435
465
487
495
493
476
452
420
383
347
314
288
270
263
266
278
301
327
356
387
413
434
449
455
454
444
429
409
386
364
344
328
318
314
319
326
341
357
377
396
412
425
432
434
433
427
417
405
392
380
369
362
359
359
364
371
381
393
406
417
427
434
439
438
435
429
420
410
401
390
381
376
373
372
374
378
385
393
402
411
420
427
431
433
433
429
424
417
411
403
397
390
386
385
386
388
393
399
405
412
418
423
426
427
427
426
421
417
411
406
400
397
394
394
396
397
400
404
408
412
415
419
421
420
420
418
416
413
410
407
405
403
403
403
403
404
405
408
409
412
413
414
415
416
417
418
417
415
414
413
413
412
414
415
416
419
420
420
422
422
422
422
420
420
418
416
416
415
414
415
416
416
418
419
422
424
424
426
428
428
429
427
427
424
422
419
415
413
410
408
404
403
401
401
401
399
399
399
400
399
398
397
396
393
392
390
388
386
385
383
382
381
380
378
377
375
372
372
370
369
368
368
368
367
366
366
366
366
366
367
366
366
366
367
364
364
362
361
359
358
358
357
356
355
354
354
355
356
355
355
355
356
355
356
355
356
356
354
355
355
355
355
356
357
356
356
354
352
351
350
349
348
349
351
351
353
354
356
359
361
363
365
365
364
364
363
361
359
357
355
353
352
352
351
351
351
353
352
353
355
356
357
358
358
359
358
358
357
358
357
356
358
357
358
358
357
359
358
359
359
360
360
361
361
362
362
362
362
362
360
361
360
360
358
358
358
357
357
357
357
357
357
358
358
359
358
359
358
358
357
357
355
355
356
356
356
356
356
357
357
357
356
355
354
353
352
351
351
352
351
351
352
352
354
356
358
358
359
359
359
360
359
358
357
356
355
354
352
351
350
351
350
351
354
356
358
360
362
362
362
361
359
357
355
353
351
350
350
351
351
353
354
355
356
358
359
360
361
361
362
361
360
358
357
356
354
352
351
351
351
351
352
354
355
357
358
360
360
361
362
361
360
357
355
353
351
350
349
348
348
348
350
353
355
357
357
359
361
360
361
362
361
361
362
363
364
364
367
368
368
370
371
373
373
374
374
373
372
371
369
367
364
362
362
362
363
367
371
375
379
382
385
387
388
388
385
381
375
371
365
361
357
355
353
354
355
357
360
363
366
368
368
369
368
366
364
360
358
355
350
347
345
343
341
341
342
344
346
347
349
351
354
354
355
353
351
350
349
348
345
344
344
341
342
343
343
344
347
349
351
353
355
356
355
356
354
353
350
347
346
345
343
345
345
346
348
349
350
351
353
353
350
347
343
337
332
326
322
319
315
315
319
328
342
361
385
413
446
482
520
559
601
639
662
663
662
662
664
663
663
662
659
637
590
523
442
351
257
170
100
48
24
29
57
111
183
266
352
434
503
555
584
589
572
534
480
417
350
285
228
187
163
157
169
198
240
289
342
391
435
466
485
487
478
453
419
379
338
299
265
242
229
228
238
258
288
318
351
384
409
428
437
438
430
413
391
367
338
314
292
277
269
267
275
288
306
327
348
369
388
400
408
409
405
395
381
365
348
332
316
305
299
298
300
308
320
334
349
361
373
383
389
388
386
379
371
360
349
339
331
324
319
320
323
330
337
346
356
365
373
376
379
378
376
370
364
358
351
344
341
338
335
335
337
340
345
351
356
360
363
367
367
367
366
364
361
358
354
351
350
346
345
345
344
343
345
347
351
355
359
363
367
371
375
377
378
378
377
374
370
366
360
357
354
351
351
351
353
355
360
365
368
371
374
376
376
376
375
375
374
373
371
370
370
370
370
371
369
370
371
373
373
376
376
378
378
378
377
378
377
376
375
373
373
374
374
375
377
379
380
381
382
382
382
383
384
384
384
383
382
380
379
377
373
370
367
363
361
358
358
356
355
355
353
353
352
350
348
346
343
342
340
339
336
334
332
330
328
324
323
320
319
318
317
317
316
316
317
316
315
314
313
311
312
310
309
309
308
309
307
310
310
313
314
315
317
318
318
319
318
317
315
313
313
311
309
308
306
305
305
305
304
305
306
307
307
308
308
308
307
307
307
306
306
306
306
305
306
305
305
305
305
305
303
303
302
300
301
302
302
304
306
307
309
309
311
311
311
311
308
308
305
305
304
302
302
303
302
303
304
306
306
307
308
309
309
309
309
307
306
304
302
301
300
298
298
299
300
301
304
306
307
309
309
310
310
309
307
305
304
302
298
298
297
296
296
296
299
300
300
302
303
305
305
306
305
304
302
300
298
295
294
290
289
288
288
289
289
292
293
296
297
299
299
300
299
299
297
296
295
292
291
290
290
290
290
291
292
292
292
293
295
296
295
296
295
294
293
293
292
291
289
289
288
286
287
287
288
290
291
295
298
300
301
301
302
301
299
296
293
291
288
286
285
285
285
287
288
290
291
292
293
293
293
294
292
293
291
290
288
288
287
287
287
286
286
286
286
287
287
286
288
288
290
292
294
295
297
299
302
303
306
307
309
309
310
310
308
307
304
302
299
298
294
293
292
292
295
298
303
308
314
317
321
322
324
323
322
321
318
314
309
305
301
297
296
294
292
291
293
294
294
295
296
297
296
297
296
295
293
291
288
285
282
280
279
277
277
276
278
280
282
283
287
290
292
293
294
294
293
292
290
288
286
283
282
280
278
279
278
280
281
283
286
288
292
294
295
297
297
297
296
292
290
287
283
282
279
277
278
279
280
281
284
287
288
288
288
286
282
278
274
270
267
265
266
269
277
292
312
337
366
399
436
475
516
556
593
628
656
662
662
661
660
653
626
576
506
422
328
231
141
64
5
0
0
8
43
97
165
241
315
384
439
478
495
494
472
436
388
334
278
227
186
156
141
141
157
184
221
263
307
346
377
400
410
409
396
374
345
310
276
244
219
202
194
196
207
224
249
277
306
332
353
370
378
378
370
356
337
316
293
273
256
244
239
238
246
258
274
294
312
330
343
353
359
357
352
343
330
316
301
287
277
270
267
269
274
284
296
308
321
332
342
348
350
348
344
336
325
315
305
294
287
285
283
286
290
297
306
316
325
334
340
344
344
343
339
333
326
318
310
304
299
296
294
296
299
303
310
317
325
332
338
342
344
345
344
340
335
331
323
318
314
311
310
312
315
319
324
330
334
339
342
344
344
343
341
336
332
329
326
324
324
325
328
331
333
336
341
344
348
350
351
352
350
350
348
345
343
342
340
339
338
338
340
342
344
346
348
350
352
354
356
356
355
354
354
352
351
350
350
352
351
353
354
355
357
359
360
362
364
365
365
365
366
365
363
362
361
359
357
355
353
352
351
349
347
348
349
349
349
349
349
348
349
347
347
343
342
340
337
335
333
330
329
328
327
326
326
325
325
324
324
323
323
322
323
321
322
322
321
319
319
319
317
318
317
317
317
316
316
318
316
318
317
317
317
316
318
317
318
319
319
319
320
321
321
321
321
321
319
319
317
314
313
311
310
308
308
310
312
314
317
320
323
325
328
328
329
328
328
326
325
322
320
318
316
317
317
317
319
320
321
324
324
327
327
328
329
328
326
325
324
323
323
322
322
323
324
325
326
328
329
331
331
331
331
332
331
331
332
331
331
332
330
331
331
331
332
331
333
333
334
333
334
335
334
334
334
333
334
332
332
332
331
332
331
330
332
331
332
333
332
333
333
332
332
332
332
331
333
334
335
335
336
336
336
336
336
334
334
333
333
332
332
332
332
332
333
335
336
336
336
337
336
335
334
331
330
328
324
324
321
320
320
322
323
327
330
333
337
338
339
340
339
336
334
332
328
325
323
323
322
323
325
326
328
333
335
338
339
340
341
341
341
339
338
335
332
330
329
328
329
328
329
331
331
334
337
339
340
342
342
343
343
344
344
344
345
346
347
348
350
352
353
355
354
354
354
353
352
350
349
346
347
347
349
351
354
357
361
364
368
368
369
368
366
363
359
353
348
344
342
339
337
337
337
338
339
341
341
341
343
342
343
342
342
341
339
338
337
334
334
333
333
334
333
334
335
335
335
334
336
335
334
334
333
333
333
332
334
334
335
337
338
339
339
339
338
337
336
334
332
331
331
330
331
331
333
335
337
338
339
340
341
340
341
341
341
341
342
341
339
337
335
329
324
318
313
309
307
307
310
316
328
345
365
391
420
451
485
521
557
593
627
656
661
662
663
663
662
661
654
628
580
515
436
352
266
185
119
70
44
41
62
101
161
234
310
383
448
500
532
544
538
511
470
418
362
305
256
215
190
180
184
205
238
277
322
366
406
436
455
464
458
440
415
382
348
313
282
260
244
240
244
258
279
305
334
360
385
404
417
420
416
405
388
366
345
322
304
288
279
276
280
289
303
320
337
356
372
383
391
395
392
386
376
363
350
337
326
318
312
310
313
320
326
337
348
358
368
375
378
380
378
374
367
359
349
340
333
327
323
322
324
328
333
339
347
356
363
369
373
375
376
374
370
366
361
356
351
348
345
343
344
346
349
353
357
360
364
367
369
370
369
368
365
362
359
356
354
354
355
355
358
361
364
368
371
374
377
376
378
376
373
371
369
365
362
360
359
358
359
361
363
368
371
374
377
379
380
380
380
379
377
377
374
373
372
372
371
372
373
374
377
379
382
385
387
390
392
392
394
394
393
390
389
387
386
386
384
384
385
386
388
391
392
394
396
397
398
398
397
397
394
393
391
390
388
388
388
387
387
388
389
388
388
388
387
385
382
380
375
373
370
367
364
362
360
359
358
357
357
357
359
359
360
360
360
359
359
356
354
351
348
345
344
343
341
341
340
342
342
344
345
347
347
346
346
345
344
342
339
337
335
333
332
332
332
332
333
335
335
337
338
340
340
340
340
339
338
336
336
336
337
339
340
341
342
342
343
343
343
342
342
342
342
341
340
340
339
338
338
337
336
337
337
338
338
339
340
341
342
343
345
346
347
347
347
347
346
345
344
344
342
342
341
342
342
344
346
347
349
350
352
353
354
354
354
354
353
352
351
349
348
347
347
347
346
347
348
347
349
349
351
352
352
354
352
353
352
351
351
350
350
350
350
350
351
350
351
350
352
351
352
352
353
353
353
352
352
350
349
348
346
346
344
341
340
340
341
342
343
345
345
347
347
348
348
347
346
345
344
344
343
342
343
344
345
345
346
348
347
348
347
348
347
346
345
345
343
341
340
339
337
336
336
337
337
337
337
339
340
342
343
344
346
346
348
349
349
350
348
347
346
344
343
341
338
337
335
334
334
334
335
335
339
340
343
347
349
350
351
353
352
352
350
348
346
343
343
341
339
338
337
338
338
340
342
344
344
345
346
347
346
347
346
345
346
346
346
347
348
348
351
352
354
356
358
360
362
364
364
365
366
365
363
360
359
355
352
350
349
349
350
353
357
362
367
372
375
377
379
379
378
377
374
370
365
361
357
353
349
349
347
347
348
348
350
352
351
352
352
352
352
351
349
348
345
342
339
338
336
337
336
338
340
341
343
342
343
342
341
340
338
336
335
335
334
335
336
338
339
341
344
346
347
348
347
345
342
341
338
334
332
329
328
328
329
332
335
339
341
346
348
351
352
352
351
348
347
341
336
330
322
315
309
305
302
302
304
310
319
334
353
376
404
434
466
501
536
571
606
637
659
662
663
663
663
662
659
649
616
562
492
410
324
238
161
100
60
42
49
80
130
196
272
348
423
483
528
551
553
535
499
451
394
335
281
235
201
182
180
192
219
256
299
346
389
426
453
467
466
455
431
400
364
326
291
262
241
229
230
240
258
283
312
341
370
392
410
419
420
412
398
380
356
332
309
290
277
271
271
276
289
305
324
344
361
376
389
396
396
391
382
369
354
338
324
312
303
298
299
303
312
323
336
350
363
373
379
383
384
381
373
363
353
342
332
325
321
320
322
327
333
342
349
358
365
369
372
373
372
369
366
360
353
347
342
339
337
337
340
343
347
352
357
363
366
370
371
373
371
371
369
366
364
360
356
355
353
352
353
355
357
361
364
367
371
373
374
375
375
374
373
372
371
369
366
365
364
362
362
361
362
363
364
366
369
372
375
379
381
381
382
380
378
376
372
371
369
368
367
367
369
371
374
375
379
381
383
386
388
388
387
386
386
383
382
380
376
375
373
373
374
375
377
380
384
388
392
395
396
397
397
395
393
390
387
384
380
377
376
373
372
371
371
372
372
372
374
374
374
375
373
372
369
365
362
358
354
351
348
348
346
345
345
345
345
346
346
345
344
344
343
342
340
339
335
332
330
330
328
328
330
329
333
333
335
337
338
339
341
339
339
337
335
333
331
329
328
328
330
329
330
332
333
333
334
334
334
334
333
333
333
333
333
333
334
334
334
334
335
336
336
336
336
335
334
334
332
330
330
328
328
327
327
329
329
332
334
337
339
340
341
341
341
340
340
340
337
336
336
336
335
336
335
336
338
339
338
338
339
340
340
341
340
340
341
340
339
339
338
337
337
338
339
339
341
342
344
343
345
344
345
343
342
340
337
337
334
332
332
330
329
328
330
330
331
332
333
336
337
337
338
338
338
336
336
334
334
332
333
333
334
335
336
337
339
340
342
342
344
343
345
345
344
345
344
343
343
341
341
341
339
339
341
340
341
343
342
343
345
345
345
345
345
345
345
344
343
342
341
340
339
339
339
339
338
339
339
338
338
338
338
338
339
339
339
337
337
337
335
335
335
335
335
337
337
339
339
339
340
339
338
338
337
335
336
334
332
331
330
330
330
331
334
334
336
338
338
341
342
340
340
339
337
335
334
330
329
330
330
330
332
337
341
347
352
358
362
366
369
370
369
367
363
358
352
347
341
338
335
333
334
337
341
347
353
360
366
371
374
376
376
374
370
365
360
354
348
342
338
334
332
331
332
334
336
339
342
346
349
350
352
352
351
349
347
343
339
335
331
328
326
324
325
326
329
332
336
337
340
342
344
343
343
344
341
340
337
334
332
331
328
326
326
326
326
327
329
331
334
336
337
338
339
340
339
338
337
337
336
336
335
336
335
336
337
337
337
335
333
330
324
318
313
307
303
300
300
303
312
325
344
369
396
429
463
500
537
575
611
642
661
663
662
662
662
660
655
632
588
524
444
356
266
182
108
54
23
15
36
79
141
217
298
377
448
503
539
553
544
515
469
413
351
288
232
189
161
151
156
180
216
263
313
362
408
443
466
473
468
449
420
382
340
300
262
234
215
208
214
229
254
285
319
351
380
402
418
423
419
405
385
360
333
305
280
262
250
246
251
262
278
299
321
344
362
376
385
388
382
373
358
340
322
304
289
277
270
268
271
279
291
306
322
337
350
359
364
366
362
355
345
334
320
308
299
292
287
288
290
297
305
315
324
335
344
349
353
354
351
346
341
333
324
315
309
303
298
296
298
301
306
314
320
327
334
339
342
344
342
340
337
331
325
318
313
308
304
302
303
306
310
315
322
327
332
337
340
341
341
338
336
332
327
324
320
319
316
316
318
321
324
327
331
333
337
338
340
340
339
338
336
333
331
329
327
326
327
327
327
330
331
334
337
337
339
338
340
338
338
335
333
330
329
326
326
327
327
328
331
336
338
341
344
347
346
346
345
342
340
337
333
331
328
324
323
323
321
323
323
325
324
325
324
323
322
319
317
314
310
307
304
301
300
298
299
299
299
300
301
302
303
303
303
302
301
297
295
291
288
284
282
280
278
278
278
279
281
283
285
284
285
284
282
281
281
279
276
276
273
272
270
269
270
270
270
271
273
273
274
276
277
278
278
277
277
276
275
275
273
273
272
271
269
269
270
269
269
269
270
272
272
274
275
274
276
277
276
277
276
275
275
274
273
271
270
270
268
267
267
266
266
267
267
267
269
270
271
272
274
275
276
278
278
278
277
276
275
273
272
270
269
270
270
272
272
275
276
279
279
281
282
281
280
280
279
277
275
275
272
272
272
272
274
273
272
272
271
270
270
272
270
270
272
272
273
274
275
275
274
274
273
273
272
271
270
270
269
269
269
268
268
269
270
269
269
272
273
274
275
276
278
279
279
279
278
279
277
277
276
274
275
274
274
272
274
274
273
272
272
272
272
273
272
271
270
271
271
271
271
272
271
273
273
274
275
275
278
278
277
277
276
276
275
275
275
275
275
275
274
273
274
274
273
274
273
272
272
271
272
271
271
269
270
272
273
275
278
279
282
285
288
289
291
292
294
295
293
294
293
292
292
290
289
289
288
287
285
285
286
288
290
294
297
300
303
306
309
310
310
308
306
300
296
291
287
284
281
279
278
281
283
285
289
292
296
299
300
299
297
295
291
286
281
278
274
272
269
267
268
270
272
276
280
282
285
287
288
287
286
284
279
277
274
272
269
268
268
269
271
275
277
282
284
287
290
290
291
291
288
287
283
281
278
276
275
274
274
277
280
284
288
291
295
297
296
294
289
283
276
269
261
256
251
252
254
260
273
290
313
338
368
401
435
470
503
534
564
590
611
631
647
653
649
629
589
532
457
374
285
199
124
64
23
6
8
32
73
129
192
260
324
381
424
450
459
450
424
385
339
290
242
201
170
152
147
155
177
206
242
280
318
350
374
389
392
386
369
344
316
285
254
229
209
199
196
203
216
236
260
285
308
329
344
353
356
351
340
325
308
289
273
257
246
238
237
242
250
262
278
293
309
321
330
336
339
336
329
320
308
296
285
276
269
264
262
267
273
281
290
301
311
319
325
329
330
329
325
320
313
307
299
292
287
285
283
284
288
292
296
302
309
314
318
322
325
324
323
319
314
310
304
300
296
294
294
295
297
301
307
312
316
321
324
326
326
325
324
321
318
315
311
309
308
308
309
310
313
316
320
323
327
329
331
330
330
327
326
325
322
321
318
319
318
320
321
323
325
326
330
331
331
333
333
332
332
330
330
330
328
328
327
327
328
329
331
333
335
337
339
342
343
345
345
345
346
345
343
344
342
343
342
341
342
342
343
345
346
347
350
351
354
355
356
356
358
357
356
356
354
352
351
349
347
347
346
344
344
344
343
343
342
341
340
339
337
336
334
332
332
330
331
330
328
328
327
327
327
326
327
326
327
327
325
323
321
320
318
317
314
312
311
309
309
309
310
311
312
314
316
317
318
320
320
320
319
318
316
315
314
311
311
310
310
310
310
312
313
314
316
317
318
318
318
318
318
318
318
316
315
315
314
313
311
310
311
310
312
314
316
318
320
322
324
327
327
329
328
328
328
326
325
324
322
322
320
320
321
321
323
323
324
327
328
331
331
333
333
332
330
329
328
326
324
322
322
322
322
322
323
325
326
327
328
330
329
330
331
331
331
331
332
331
331
330
329
328
327
327
327
327
329
328
331
332
335
335
336
336
335
335
334
331
331
329
329
329
329
330
332
334
335
337
338
338
339
339
338
337
336
334
332
332
330
331
329
330
331
331
333
334
335
337
337
339
339
340
338
339
336
335
333
332
329
328
327
326
326
325
326
329
330
331
333
336
337
338
338
339
338
338
337
337
335
335
334
333
333
334
333
336
337
339
343
345
348
351
353
357
359
361
362
362
363
361
363
362
361
359
359
358
357
355
353
352
353
354
356
360
364
369
371
373
374
375
374
371
369
365
360
357
352
349
347
345
345
345
348
349
352
354
357
359
358
357
356
354
352
350
347
343
342
338
335
334
335
336
337
341
344
345
347
350
349
350
348
346
342
339
337
334
332
330
330
331
332
334
335
338
339
341
344
345
346
347
347
347
347
346
344
344
343
342
341
341
341
341
343
344
347
349
350
351
349
346
343
339
332
328
325
322
320
322
327
336
349
367
390
416
445
477
512
549
583
618
648
661
663
662
663
662
661
656
637
594
534
460
378
296
216
151
99
72
65
81
119
176
243
316
390
453
505
538
552
546
522
482
433
379
324
275
236
210
197
202
221
251
292
336
382
424
457
483
495
496
484
463
434
403
368
337
314
296
288
291
299
317
339
365
391
415
435
449
457
456
447
435
417
396
376
357
341
330
326
326
333
343
359
375
392
407
419
427
432
430
426
417
406
393
381
370
361
354
352
352
355
363
373
384
395
405
414
418
421
421
417
411
405
396
388
380
373
368
364
365
365
370
375
382
387
394
400
404
407
407
406
404
399
394
389
383
378
373
369
368
368
371
375
379
384
387
392
395
398
399
398
397
394
393
389
386
384
381
380
380
379
379
381
381
382
382
383
383
384
385
385
386
386
386
387
388
387
386
387
386
386
386
385
385
386
387
388
389
390
392
392
393
393
393
392
393
393
392
393
393
395
394
396
396
397
397
398
397
397
397
397
398
399
399
401
402
403
405
406
407
407
407
406
404
403
401
401
400
400
399
399
400
400
402
402
403
402
403
402
400
398
396
393
389
387
383
379
377
374
371
369
368
369
370
370
370
370
370
369
368
366
362
361
358
354
353
349
349
346
346
344
344
344
345
346
348
348
350
351
352
352
351
349
349
347
345
344
340
340
339
337
336
336
337
339
340
342
344
346
347
347
346
346
344
342
340
338
336
334
332
331
331
330
331
334
334
336
337
338
339
338
338
338
339
339
338
337
336
337
336
335
336
336
336
337
337
339
339
339
341
341
341
341
341
340
338
338
339
338
337
338
338
338
339
340
342
343
342
343
343
344
344
343
342
341
339
338
336
336
336
335
336
336
338
338
340
339
340
340
340
341
340
341
341
341
340
339
339
338
337
337
336
336
336
336
337
336
336
336
336
336
334
334
334
335
335
335
335
336
336
335
336
335
336
335
336
335
336
336
336
336
336
336
336
336
336
334
333
331
330
329
329
329
329
330
331
332
332
332
333
334
333
333
331
330
330
330
330
329
330
330
331
331
332
332
333
333
334
333
333
333
332
330
330
329
327
326
326
328
328
329
331
334
336
338
341
345
347
349
350
352
352
351
350
349
346
344
343
341
338
338
337
337
337
340
343
347
351
354
358
361
362
363
363
362
360
356
352
348
343
340
338
336
335
334
335
337
338
342
343
344
345
348
347
345
344
341
338
336
333
331
329
327
326
325
325
327
327
330
331
335
337
338
339
338
338
337
336
332
330
329
327
326
326
325
325
326
327
327
327
329
329
330
331
332
333
333
333
333
332
332
332
333
332
332
331
331
332
331
333
332
331
328
325
320
315
310
306
302
301
302
305
314
328
346
368
396
425
457
492
528
563
598
631
657
661
662
663
661
661
655
631
587
521
443
355
267
182
111
57
27
20
40
82
142
217
295
373
444
498
533
548
540
513
468
415
355
293
240
195
168
157
162
182
216
258
306
352
395
428
450
458
453
437
410
374
337
299
265
239
221
214
219
234
257
284
313
344
371
392
404
409
405
394
375
353
329
306
284
270
260
257
262
271
287
305
325
342
359
372
379
380
376
369
356
340
324
310
298
289
284
285
288
297
308
321
333
345
354
362
364
364
359
353
344
335
326
315
309
304
302
302
305
309
316
323
330
336
342
345
346
346
344
340
336
330
326
320
315
313
310
311
312
315
318
323
328
334
337
341
343
343
343
341
339
337
333
330
326
323
320
318
317
318
320
323
327
330
335
339
342
344
345
344
343
340
338
333
330
328
326
326
327
328
330
332
335
338
341
344
344
345
344
343
343
340
338
337
333
332
331
332
333
335
337
340
341
344
347
348
350
350
350
348
348
346
345
343
342
342
342
342
341
343
344
346
347
348
349
349
349
349
350
348
346
345
342
340
338
335
335
334
333
333
333
332
332
332
331
331
331
329
327
324
321
317
313
310
305
302
300
299
297
297
298
299
300
302
304
305
305
305
306
305
303
301
298
294
292
289
286
285
282
282
282
283
285
287
289
290
292
293
294
294
292
290
288
285
283
281
278
276
276
276
276
278
281
283
284
287
287
287
285
285
283
281
280
278
277
276
275
276
277
280
282
285
287
290
291
294
294
293
290
289
286
283
281
278
276
274
275
274
276
277
281
283
286
287
290
289
290
289
288
285
283
279
278
277
275
275
277
278
281
284
287
290
294
296
296
298
298
299
297
295
291
288
285
283
281
280
279
281
283
287
290
295
298
303
304
305
304
303
300
298
294
291
288
287
285
284
285
288
290
295
298
301
303
305
303
303
300
296
293
289
285
283
282
281
282
284
287
290
294
297
301
303
304
303
303
300
297
294
292
287
286
283
282
282
282
284
287
288
292
292
295
296
297
296
296
295
295
293
293
291
290
290
289
290
291
293
295
298
300
304
305
308
310
311
313
314
315
312
313
311
309
309
307
306
306
306
306
307
306
307
309
310
313
315
317
320
322
323
324
325
325
324
323
321
318
316
315
312
309
306
304
302
301
300
299
300
298
298
297
297
297
297
297
296
296
298
298
297
297
296
296
296
294
294
295
295
294
293
292
291
291
289
288
287
286
284
283
283
284
285
285
288
289
291
292
293
294
294
294
294
293
293
292
292
292
292
290
291
290
290
290
292
293
294
294
296
298
297
298
297
294
290
284
279
273
267
264
261
263
267
275
288
305
328
354
384
416
451
488
524
559
592
623
650
662
662
662
658
642
603
545
469
382
290
199
119
55
10
0
0
26
72
133
203
278
349
410
456
482
489
476
445
400
347
290
236
189
154
133
128
139
162
198
239
285
326
363
392
408
412
402
382
352
317
281
247
217
197
184
182
191
209
234
263
293
323
347
367
377
379
373
358
338
314
289
264
243
230
221
221
227
240
257
277
299
319
337
350
356
357
352
341
328
311
293
277
263
256
250
251
256
266
278
292
306
320
332
341
345
345
341
335
324
313
301
290
282
274
272
272
275
282
291
300
311
320
328
334
338
340
338
333
328
321
314
308
302
298
296
295
297
301
306
311
317
324
328
331
333
334
334
331
330
326
322
319
317
315
312
312
313
315
318
321
326
329
332
336
336
336
336
335
334
332
329
326
326
324
324
324
324
326
328
330
333
335
338
341
341
344
343
343
342
341
340
339
337
338
337
338
338
341
342
344
346
348
350
353
355
357
357
359
359
357
357
357
355
356
355
356
356
357
360
361
364
365
368
369
370
371
369
368
367
364
362
359
357
354
351
350
349
348
347
348
347
348
347
346
345
345
342
340
336
334
330
328
324
322
321
320
319
321
322
323
324
327
329
330
329
328
328
325
324
322
318
316
315
313
310
311
309
309
309
311
313
314
316
318
321
322
323
323
322
321
319
317
314
313
311
310
311
311
312
314
316
318
323
325
327
330
330
331
329
328
326
324
321
318
317
317
315
315
317
320
323
325
327
330
330
331
332
331
331
330
329
328
327
326
325
325
326
325
327
327
329
330
332
333
333
335
334
335
333
332
331
331
329
330
331
330
330
332
333
333
336
337
336
338
337
339
339
340
339
340
339
340
340
338
340
340
340
340
340
341
341
341
341
342
343
342
343
342
341
340
338
338
337
335
336
335
335
338
339
341
343
344
346
347
348
346
346
345
342
340
337
336
335
335
334
334
334
336
337
340
341
344
345
347
347
348
347
346
344
343
342
340
340
340
341
342
344
345
348
350
352
352
352
352
351
349
349
346
344
345
344
343
344
345
346
349
350
352
354
354
356
355
355
356
356
355
355
355
355
355
355
355
355
357
356
357
356
356
357
356
356
357
356
356
355
355
354
353
354
355
357
358
360
362
366
368
371
375
378
379
379
381
379
378
375
375
371
369
366
363
363
362
363
366
369
371
375
380
383
387
389
392
392
391
390
387
382
378
373
370
365
361
359
357
357
357
358
360
361
364
364
365
367
368
368
367
368
368
365
365
362
360
358
355
353
352
352
353
356
357
359
363
364
366
366
367
366
365
362
359
356
354
350
348
348
348
348
348
351
353
356
359
362
363
365
367
365
365
364
361
359
355
353
351
351
351
352
354
357
357
357
356
353
350
345
341
337
335
333
334
339
346
360
377
398
424
454
487
521
555
591
625
655
662
662
663
662
662
660
656
635
593
535
462
381
300
225
160
112
84
77
93
128
179
245
314
384
447
497
531
543
537
515
478
431
378
327
281
242
218
208
211
228
258
292
332
373
411
439
458
466
461
446
423
393
360
327
299
275
261
256
259
271
291
315
341
368
391
410
422
426
424
415
400
382
362
340
320
305
296
292
293
300
312
327
344
362
377
390
398
402
400
395
385
374
361
350
340
332
327
324
327
331
337
347
355
366
374
380
384
385
383
379
372
365
357
349
342
337
334
335
336
340
347
354
360
366
372
375
378
379
379
376
374
370
366
362
359
355
353
351
351
354
356
358
361
364
367
370
372
373
371
372
369
367
365
363
362
360
361
363
365
369
372
374
378
380
382
383
383
382
380
379
376
373
371
368
366
366
367
367
369
370
372
374
376
378
381
382
383
384
383
381
380
380
378
378
376
377
378
378
379
382
383
386
387
391
392
393
395
394
394
393
392
392
392
390
389
387
387
386
386
388
389
391
394
396
398
399
399
400
400
399
397
396
393
391
388
387
385
385
384
383
382
382
380
381
381
380
379
378
378
377
375
373
372
369
367
364
361
359
357
355
355
354
354
354
354
354
356
356
356
356
353
352
350
348
346
346
345
344
344
344
345
345
346
345
345
344
344
343
342
340
339
337
336
335
336
336
338
338
341
341
343
343
344
343
343
341
340
339
337
337
337
336
337
338
339
340
341
342
343
345
345
346
345
345
344
343
341
340
341
340
340
342
343
346
348
349
351
351
351
349
348
346
344
343
342
341
340
340
340
342
343
343
345
344
344
344
342
341
339
338
335
334
333
333
335
335
336
337
338
338
339
341
343
343
343
345
344
345
345
344
344
344
343
341
340
339
339
339
338
340
341
340
342
342
344
344
345
343
344
344
345
345
345
344
344
344
343
342
342
342
342
342
341
342
341
342
342
342
341
340
341
339
339
339
339
338
338
337
337
337
337
339
339
342
341
344
343
343
342
340
339
337
337
336
334
333
332
332
332
333
334
333
334
335
337
339
339
342
343
344
342
343
342
342
342
341
340
340
339
339
339
338
337
337
338
338
339
340
341
344
345
346
348
347
349
348
348
349
348
347
346
346
344
343
343
342
343
344
345
346
349
351
354
357
360
363
364
366
367
369
371
371
372
371
370
369
365
363
358
354
352
349
347
348
351
355
360
367
372
377
382
385
388
388
387
383
380
373
367
362
355
351
347
345
344
345
346
349
351
354
354
356
358
359
357
356
355
352
349
346
343
341
339
337
336
336
338
340
343
343
344
345
345
346
345
344
343
342
340
341
339
338
338
339
340
340
340
341
342
342
342
343
343
343
344
343
343
343
343
343
345
344
345
346
346
347
348
349
349
348
348
344
339
334
327
321
316
311
309
307
307
312
324
339
359
385
414
446
482
520
556
596
632
659
662
663
663
662
663
661
658
638
595
532
456
369
281
198
128
73
44
39
60
103
165
242
324
402
470
524
558
568
558
525
479
421
359
297
241
198
171
161
168
190
226
271
321
370
415
449
471
480
473
456
426
389
349
309
274
246
229
222
226
240
264
294
325
357
386
408
422
428
425
413
394
370
344
320
297
279
268
266
269
279
294
312
332
351
367
380
387
389
386
377
366
351
337
322
310
299
294
293
296
304
314
327
338
350
362
369
374
376
374
368
360
350
341
332
324
318
316
315
317
320
326
332
340
346
351
356
357
356
354
349
345
338
332
329
324
321
320
320
323
327
331
336
342
347
351
353
355
355
353
349
345
343
338
335
332
330
329
330
330
334
337
340
345
348
352
355
357
358
357
356
354
353
349
346
343
342
340
339
338
340
342
342
346
348
351
353
355
356
357
358
358
357
357
355
354
354
352
352
353
354
354
354
355
357
358
358
360
362
361
362
362
364
365
364
365
365
366
366
367
367
365
364
363
364
363
364
365
367
368
368
370
370
371
369
369
367
364
362
359
356
354
351
347
344
342
340
339
340
340
340
341
341
341
342
340
338
335
331
330
326
325
323
321
320
321
320
320
318
318
317
316
317
317
316
317
317
318
318
317
318
317
317
315
315
315
314
314
315
314
316
315
317
318
318
319
319
319
319
318
318
318
317
316
315
314
314
313
313
313
313
315
315
318
318
319
321
320
322
322
322
322
320
318
318
316
316
316
315
316
319
320
322
324
326
328
329
331
331
330
331
329
327
326
323
322
320
320
320
320
320
321
324
326
329
332
334
337
338
340
340
339
337
334
330
327
324
321
319
320
320
321
324
325
330
333
336
339
342
343
344
343
341
338
334
332
328
326
324
323
323
323
325
327
330
334
336
340
341
343
342
342
340
337
334
331
327
324
323
321
322
324
326
329
334
336
340
344
344
346
347
346
344
342
340
337
335
333
332
331
332
333
334
335
337
337
340
341
340
341
340
339
338
337
336
335
336
336
336
336
337
339
340
340
340
340
339
339
338
337
336
336
333
333
332
332
332
332
332
333
335
334
337
336
339
340
342
342
344
344
345
345
346
345
347
346
347
348
348
348
349
350
351
354
354
356
356
354
354
352
351
350
350
350
352
353
355
358
360
363
366
367
368
368
367
365
362
358
352
347
344
340
337
335
334
335
336
340
341
344
345
346
346
345
343
340
338
334
330
327
324
322
319
319
319
321
324
325
327
329
331
332
333
332
331
329
327
323
320
319
317
316
315
317
319
319
322
325
326
329
331
332
332
332
333
332
330
329
328
327
325
323
322
322
323
324
324
326
326
328
330
331
329
324
321
316
310
306
302
301
302
305
313
324
340
361
386
414
444
476
509
542
576
608
636
658
661
662
662
660
655
630
590
529
456
375
292
214
148
98
67
54
64
94
140
199
265
331
393
444
481
498
499
481
449
406
358
308
262
225
197
183
182
197
221
253
292
330
367
398
419
430
429
418
397
370
339
306
277
253
236
228
227
236
253
274
299
326
349
369
381
389
388
381
368
351
331
310
291
277
266
261
261
268
279
293
309
326
341
354
364
369
368
362
354
343
330
316
303
293
285
281
281
285
293
302
314
324
336
345
350
352
352
348
343
335
326
317
309
303
299
298
299
301
306
314
320
328
335
340
345
346
344
341
337
330
322
316
310
305
303
302
304
305
311
317
324
330
336
341
344
345
344
342
337
332
326
321
315
311
309
307
308
309
315
319
324
330
336
339
343
343
342
340
336
331
328
324
320
318
316
315
316
320
322
328
332
337
342
345
348
349
349
348
347
344
341
337
334
332
329
327
327
328
330
334
337
343
347
350
353
357
356
356
355
354
351
350
347
344
340
339
339
339
341
343
345
348
354
356
360
361
363
361
359
357
353
348
344
340
336
332
331
328
327
328
326
327
327
328
328
327
326
325
325
321
319
316
313
310
308
307
305
303
304
303
304
304
305
304
304
303
302
301
301
299
299
299
298
298
297
297
297
298
298
297
297
296
295
295
295
294
293
292
293
293
294
294
293
294
295
295
295
296
298
298
299
299
298
297
296
295
294
292
292
292
292
294
294
295
296
298
299
298
299
297
297
296
294
291
289
289
288
287
286
287
288
290
293
296
298
301
304
305
307
306
306
306
304
303
301
299
297
295
295
296
296
298
300
301
302
305
307
307
306
306
307
306
304
303
303
301
300
301
300
301
300
300
301
301
303
303
304
302
304
304
303
303
304
303
302
301
300
301
301
301
301
300
301
302
302
303
304
303
303
304
303
302
301
300
300
299
301
302
302
304
304
304
304
304
302
301
300
299
297
297
297
296
298
299
299
302
303
304
305
305
306
305
306
305
303
302
300
301
299
299
300
301
301
301
301
303
303
303
304
304
303
303
303
302
302
303
302
302
302
303
303
302
302
303
305
307
306
307
308
309
308
308
310
308
308
307
307
306
304
302
302
301
302
303
304
305
307
310
312
313
314
315
314
313
314
312
312
311
311
311
310
310
310
310
310
310
313
313
315
318
322
325
328
332
334
336
335
334
332
331
329
325
323
321
319
317
317
318
321
324
329
332
336
339
341
343
343
342
340
337
333
329
324
319
315
312
310
309
311
310
311
313
315
315
316
316
315
314
314
313
312
312
312
310
310
308
307
308
307
308
310
310
312
314
315
315
315
313
312
311
309
308
307
306
306
305
305
304
306
306
307
307
309
309
310
310
310
312
313
312
313
313
312
312
312
311
311
312
311
312
311
313
314
314
315
314
310
307
302
296
290
287
282
280
280
282
291
303
320
344
371
402
436
474
512
552
591
626
655
662
663
662
662
660
653
626
578
509
428
338
247
160
88
34
4
0
20
65
129
206
289
371
442
497
533
545
535
505
459
400
338
275
220
178
150
139
147
170
206
253
301
351
394
428
449
459
453
434
405
369
329
291
258
230
214
208
213
230
253
282
315
347
374
397
411
414
410
397
378
355
330
305
284
267
258
256
259
270
286
304
324
344
363
377
386
390
387
380
369
355
339
324
310
300
292
290
294
300
312
325
340
353
364
373
380
380
379
372
363
352
342
331
322
314
311
311
314
319
327
336
346
356
363
370
374
372
371
367
359
352
344
337
332
327
326
326
329
333
340
347
354
361
368
372
372
374
373
369
364
358
354
347
342
337
334
336
336
340
344
351
358
365
370
376
377
378
377
376
373
367
363
360
356
353
352
352
354
356
360
365
369
373
376
380
382
382
383
381
381
379
377
375
373
373
372
372
373
375
376
378
383
385
388
390
392
392
392
391
391
389
388
387
385
385
384
386
387
388
390
392
395
396
398
399
400
399
398
395
393
392
389
387
386
385
386
385
385
387
388
387
388
389
387
385
383
379
376
371
367
362
359
357
356
357
357
357
358
358
359
359
359
360
359
358
357
356
354
352
350
348
345
344
343
341
341
339
338
339
340
341
341
343
344
346
347
348
348
348
346
346
346
345
344
342
342
342
343
343
344
344
345
344
345
344
345
344
344
345
344
344
344
344
345
344
343
343
342
342
342
344
343
345
346
346
348
349
349
349
350
350
352
351
352
353
352
354
354
354
354
354
354
354
353
352
352
351
350
349
351
351
353
354
355
356
357
358
358
358
356
355
353
350
348
347
347
347
347
348
350
354
355
358
360
363
364
363
363
362
360
358
356
355
353
352
351
352
352
353
354
355
358
359
360
362
363
362
362
360
359
356
355
352
350
348
348
346
346
346
347
348
351
353
356
357
360
360
360
360
359
356
354
352
350
348
346
346
346
346
347
348
349
351
354
356
358
360
361
361
362
362
361
361
359
359
358
358
358
358
358
358
358
357
357
356
354
354
354
353
354
353
354
356
358
360
361
363
364
365
365
365
365
364
362
362
360
359
359
358
357
358
357
358
357
358
360
360
362
363
364
364
365
365
367
370
371
374
375
377
378
379
379
380
378
377
376
374
373
371
370
368
368
369
372
375
378
382
383
385
388
388
389
388
385
383
380
375
372
367
364
363
361
360
361
362
364
365
367
367
368
367
366
364
362
358
355
351
347
343
340
338
338
338
339
341
344
347
350
353
355
356
358
357
355
353
350
347
346
343
341
340
341
341
341
342
344
345
348
349
349
350
351
349
349
346
346
344
343
341
343
342
343
344
344
345
346
346
347
348
349
348
347
343
339
333
327
322
318
315
316
317
324
335
352
372
398
427
458
491
526
561
596
627
655
661
662
663
662
662
659
648
615
563
493
414
331
248
174
113
72
54
57
81
127
188
259
332
404
465
509
535
540
526
495
451
399
343
291
244
211
189
184
194
216
251
291
335
378
415
443
460
465
457
438
410
378
342
307
278
255
241
239
245
261
281
308
334
361
383
401
412
414
410
398
382
362
341
321
304
292
284
284
287
295
309
325
342
358
373
383
389
390
387
378
367
354
341
330
320
312
308
309
313
321
331
342
354
365
376
381
384
384
380
374
364
355
346
336
330
325
322
324
327
333
340
349
357
363
369
374
376
374
371
366
360
353
348
345
342
341
341
342
345
348
350
354
355
356
357
358
358
357
357
354
353
351
350
350
350
351
352
353
354
356
356
357
358
358
358
358
358
360
360
359
358
359
357
357
358
360
360
362
362
364
365
367
366
367
367
367
366
366
365
365
366
365
367
369
370
372
375
378
379
382
381
381
381
380
378
377
375
373
373
371
371
372
373
375
375
377
378
381
382
383
384
386
386
384
384
383
381
381
378
378
377
377
377
376
377
377
376
377
377
376
374
373
371
369
368
365
363
360
359
356
354
354
353
352
351
351
350
350
350
349
348
347
345
344
342
340
338
338
337
335
333
332
329
328
326
325
325
325
325
327
329
329
330
331
331
331
329
328
328
328
328
327
327
326
325
325
324
324
322
322
322
323
323
324
325
326
327
327
328
327
327
327
327
327
327
327
329
329
330
330
330
331
332
331
332
331
330
330
329
326
324
322
322
320
320
321
322
323
325
328
329
331
334
335
336
336
335
334
333
332
332
331
331
329
330
330
332
332
334
336
337
338
338
340
340
340
338
338
336
335
335
335
334
334
335
335
335
336
336
336
337
337
337
337
336
336
336
336
336
337
337
337
337
338
338
337
336
334
333
331
331
330
329
328
328
328
329
329
328
328
329
329
329
330
330
331
330
330
328
327
328
326
325
325
324
325
326
326
327
328
331
332
334
336
336
336
335
335
334
332
331
329
329
327
328
327
327
327
329
329
331
334
334
337
338
338
338
337
336
335
332
330
328
328
327
326
327
328
328
329
329
331
333
334
336
338
339
339
338
336
334
332
330
327
325
324
322
321
320
320
321
322
324
325
327
329
332
333
335
336
337
336
335
333
332
331
329
329
329
328
330
331
333
337
338
342
344
345
347
348
348
348
347
344
341
339
336
334
332
331
332
334
337
341
344
348
352
355
356
356
355
352
346
341
336
333
328
325
323
322
322
323
326
328
330
332
333
335
336
335
334
331
329
324
320
317
312
309
306
305
306
307
310
313
317
321
323
325
326
325
323
322
319
317
314
310
308
307
307
307
308
309
311
313
315
317
318
317
318
317
314
313
310
308
307
305
305
306
307
309
311
314
317
318
321
321
318
315
309
302
295
288
280
275
271
270
273
281
296
316
340
368
400
434
471
508
545
580
614
643
661
662
662
661
660
653
626
580
513
433
344
253
167
95
40
7
1
16
56
114
185
264
340
409
464
501
518
515
492
453
403
345
287
234
191
160
148
149
164
194
232
276
320
360
391
413
423
420
407
383
353
320
288
256
232
216
208
212
223
242
267
294
321
345
364
378
384
381
372
356
335
314
291
271
256
246
243
246
253
266
282
300
316
332
344
351
355
353
346
335
323
309
296
284
276
272
270
274
280
289
300
311
323
331
338
342
343
341
336
329
321
313
304
295
290
289
287
289
295
301
309
317
323
329
334
337
337
336
334
329
325
320
314
311
308
305
306
305
308
310
313
318
322
325
329
332
333
334
333
332
329
325
322
319
316
315
314
316
318
320
323
326
330
333
334
335
336
336
334
331
329
326
322
321
320
320
320
322
325
327
332
336
338
341
343
344
345
344
343
342
338
335
333
330
329
329
331
332
336
339
343
346
349
353
355
356
356
355
352
350
348
345
343
342
341
343
344
346
348
351
354
354
356
355
355
355
354
353
352
349
347
346
345
346
345
347
346
347
347
346
344
343
340
338
335
333
331
329
328
326
326
326
325
326
325
324
324
325
324
323
322
320
320
318
318
316
314
313
311
309
307
306
306
306
306
307
306
305
306
307
307
306
305
306
303
303
301
300
299
299
300
300
300
302
302
303
305
306
306
307
307
308
308
307
304
301
299
297
294
292
290
288
289
290
293
297
301
305
310
313
316
316
317
315
313
310
308
305
301
299
297
296
296
296
298
298
301
302
304
307
308
308
309
310
310
309
307
307
305
303
303
301
302
302
302
302
303
303
305
306
306
309
309
310
310
310
308
307
306
304
303
302
302
301
302
302
305
305
307
308
310
311
310
310
309
309
308
308
307
308
307
306
307
306
305
305
304
303
303
305
305
306
307
307
307
309
309
309
310
309
309
311
310
309
309
308
307
307
306
306
306
306
307
307
307
308
309
309
310
310
311
312
312
312
312
312
313
314
313
313
313
313
314
313
311
310
311
310
310
309
310
310
310
311
311
312
313
314
314
314
314
315
315
316
316
317
318
319
319
320
321
323
323
325
326
329
330
332
333
335
335
337
338
337
337
336
336
334
333
330
329
328
328
328
329
331
334
336
340
342
345
348
349
348
348
347
345
342
337
333
329
326
323
321
321
321
323
325
327
331
334
335
336
336
336
334
332
328
323
318
314
311
307
305
303
305
307
308
312
317
320
323
325
326
327
326
324
321
319
315
312
309
307
307
308
310
314
318
322
325
328
329
330
330
328
327
325
322
321
320
318
318
318
318
318
320
321
323
325
328
330
332
333
332
330
325
319
312
305
299
295
292
291
295
302
316
334
357
385
415
450
484
520
558
592
625
654
661
662
663
663
660
657
639
600
541
466
381
294
211
136
79
41
26
35
67
117
181
256
333
404
464
507
532
533
516
482
434
378
320
266
220
187
166
164
177
203
240
284
330
373
410
436
451
453
443
422
392
355
317
282
250
229
217
217
226
244
269
298
329
357
382
400
410
411
403
389
368
344
319
296
278
264
258
258
265
277
295
313
333
349
364
374
378
377
372
362
348
334
319
305
294
284
281
281
286
294
305
318
332
344
356
363
367
368
365
358
349
338
327
316
308
300
295
295
296
302
309
318
326
336
343
349
351
352
351
347
342
335
327
319
312
307
306
305
306
309
315
322
328
334
339
343
346
347
347
344
341
337
334
330
328
325
324
324
324
327
330
333
338
340
343
347
348
349
352
350
349
347
344
343
340
339
339
337
338
338
339
343
344
348
351
354
356
357
358
359
359
358
358
357
357
357
356
356
357
358
360
361
363
364
365
366
368
368
367
369
368
369
369
370
370
371
372
373
374
375
376
376
377
377
377
378
377
377
377
376
375
375
375
376
375
375
377
376
377
377
375
373
372
369
366
364
362
360
358
356
354
353
352
352
352
350
351
351
351
351
351
352
350
349
349
347
345
344
341
340
340
339
339
340
339
340
341
343
342
342
341
342
340
339
337
336
335
335
333
332
332
332
333
333
333
335
337
338
340
341
343
344
344
344
343
342
341
340
339
337
336
336
337
337
338
341
343
347
349
352
353
355
356
356
353
352
350
348
344
343
341
340
338
339
341
343
346
349
350
352
353
354
355
353
352
351
347
345
343
342
341
338
339
340
342
346
349
351
355
357
359
361
362
362
362
361
360
356
354
351
349
347
347
346
346
348
348
350
352
354
355
357
359
359
359
357
355
354
351
349
346
345
346
346
347
348
350
352
354
356
357
359
359
359
358
356
353
353
350
347
346
344
343
344
345
346
347
350
350
352
353
354
355
355
355
353
352
349
347
345
345
347
346
348
350
350
350
350
350
350
349
348
349
349
348
350
351
352
352
353
355
354
355
353
352
351
350
348
346
347
346
344
345
345
346
346
348
349
350
351
351
352
352
353
352
353
353
352
350
350
349
349
348
349
350
352
356
359
361
366
369
374
377
379
382
381
380
378
373
368
362
357
351
348
346
346
349
352
359
366
373
380
385
390
391
391
389
384
378
369
362
355
347
342
339
340
339
342
346
351
356
359
362
364
363
364
361
356
351
346
341
337
333
331
330
331
333
336
338
341
344
346
348
347
347
345
344
341
341
339
337
336
336
335
337
337
337
338
339
339
339
339
338
337
337
335
336
336
336
337
337
337
338
340
338
340
338
339
338
336
335
332
330
324
319
314
310
308
307
306
310
316
326
340
360
383
409
435
467
499
531
564
595
624
650
661
662
662
661
658
640
604
548
478
398
314
234
164
107
70
54
58
83
125
179
244
311
375
429
469
494
499
487
461
421
374
323
277
237
207
188
185
194
215
246
281
320
356
388
410
422
423
414
398
372
343
313
286
262
245
236
237
245
261
281
306
330
353
372
387
394
395
389
376
360
340
319
300
283
271
264
265
270
282
295
312
328
343
357
366
369
369
366
356
346
333
320
307
295
287
282
281
284
292
300
311
323
334
344
353
358
359
358
353
347
339
328
319
311
304
300
299
300
304
311
320
329
335
343
348
351
351
350
345
340
333
326
318
313
308
305
306
308
311
317
324
330
336
342
345
348
349
349
347
344
339
335
331
327
322
320
319
319
318
321
322
326
330
333
336
340
343
343
343
342
341
340
338
336
335
335
334
334
334
335
336
339
341
342
344
346
346
347
347
347
347
346
344
343
342
341
341
342
341
342
343
344
346
347
349
350
351
351
353
353
355
355
356
356
354
355
353
351
350
349
350
350
352
355
356
359
363
366
368
370
370
369
368
365
363
357
354
349
345
340
339
336
338
339
343
348
353
356
360
360
359
357
353
348
343
339
334
328
324
322
320
317
317
317
319
319
321
322
323
323
324
323
323
323
322
321
319
316
315
313
310
309
308
306
306
307
308
310
310
313
314
315
314
313
312
311
308
308
306
307
307
307
308
309
310
312
313
315
317
319
321
323
324
325
326
325
325
325
323
324
322
320
320
320
321
321
322
321
322
324
324
325
326
326
327
325
324
322
320
318
314
314
312
312
314
316
320
323
326
329
331
333
333
333
333
331
329
326
326
324
322
320
320
320
321
322
324
325
327
329
330
331
333
335
336
336
336
336
334
334
333
333
332
333
331
330
330
331
330
329
329
328
327
327
325
326
327
327
329
329
331
332
334
334
334
334
333
332
329
327
325
324
323
324
326
328
330
333
337
338
341
343
343
341
340
337
335
330
328
327
323
322
323
322
325
326
328
330
332
334
335
335
337
337
337
336
335
334
332
330
329
329
331
331
332
334
337
340
342
343
344
343
342
340
337
334
331
328
324
322
320
318
319
320
322
326
329
333
335
337
339
341
341
340
339
339
337
336
334
334
334
335
338
339
343
346
350
353
356
358
358
360
359
358
357
356
354
351
350
348
347
347
348
349
351
354
357
361
365
367
370
371
371
372
369
368
363
360
355
349
345
342
339
337
336
336
336
338
338
340
340
341
344
343
344
343
341
340
337
335
331
328
325
322
321
320
319
320
321
324
325
326
329
330
333
333
336
337
337
337
335
334
332
329
328
325
323
323
322
324
324
326
328
329
330
331
331
331
330
327
326
323
322
320
319
316
317
317
319
320
320
319
316
312
309
305
300
297
295
296
301
309
322
339
362
390
422
456
493
532
571
609
643
662
663
662
663
662
660
648
616
562
491
408
320
231
151
85
38
14
15
38
85
147
219
297
373
437
488
518
528
518
488
445
391
332
275
224
185
158
148
154
174
207
248
293
338
377
409
430
437
432
416
388
356
320
285
253
229
211
206
210
223
244
271
300
328
353
372
383
388
384
372
356
335
314
293
275
261
252
251
255
265
279
295
314
329
343
354
360
360
355
346
333
320
306
293
282
276
272
273
278
286
295
307
316
328
334
339
342
341
337
331
326
316
309
303
296
293
292
292
295
299
304
311
317
323
329
332
334
333
332
328
324
320
315
312
308
306
305
305
307
309
312
315
317
320
322
324
324
324
323
321
319
317
316
316
315
315
315
316
319
322
324
327
328
331
331
333
333
331
329
327
325
322
321
321
321
321
323
326
328
331
334
336
337
338
337
338
337
336
335
334
333
333
332
333
333
335
337
339
341
343
344
345
347
347
347
348
349
348
349
346
346
343
342
340
340
340
340
343
345
348
351
353
354
356
358
357
357
355
355
353
351
350
348
345
344
344
344
343
344
344
343
344
342
341
340
337
334
331
328
325
322
320
317
316
314
313
314
314
313
313
312
312
310
309
308
305
304
302
299
297
296
296
296
297
298
299
300
300
301
302
301
300
299
297
296
293
291
291
289
289
288
289
290
291
292
294
296
295
296
297
297
295
296
293
293
291
290
290
289
289
290
290
290
291
293
293
294
295
295
296
298
297
299
298
298
298
297
296
295
295
296
295
296
297
297
299
300
300
301
301
301
301
301
299
299
296
294
292
289
287
286
286
288
290
293
295
298
300
300
301
299
300
298
295
294
290
288
286
286
285
288
288
291
292
296
297
299
300
302
302
302
301
300
299
298
296
294
292
291
290
290
289
290
292
293
295
296
297
299
301
300
299
298
298
298
296
294
293
292
292
292
294
294
295
296
297
296
297
296
296
294
294
293
294
294
296
297
299
300
301
303
303
303
303
300
299
297
296
293
292
289
289
289
290
291
294
295
296
299
300
301
301
301
301
299
299
298
294
292
290
289
289
288
288
290
292
295
298
301
305
308
310
313
314
315
315
314
313
312
309
309
308
307
307
309
311
313
316
320
323
326
327
328
326
325
324
322
319
316
314
312
313
315
319
323
326
329
333
336
336
336
336
334
330
326
321
318
313
309
307
307
307
307
309
310
311
313
314
315
315
315
315
314
313
310
308
306
301
298
296
292
290
290
291
293
295
297
301
303
305
308
309
307
304
303
298
294
291
287
285
284
285
287
290
295
298
304
307
310
313
313
314
313
312
309
307
306
304
304
302
302
301
301
300
302
302
302
301
300
296
293
287
282
277
274
272
270
271
277
286
301
321
345
372
403
438
474
510
548
584
617
646
661
662
662
662
658
640
600
540
465
378
288
200
122
61
19
1
7
38
88
152
226
303
376
438
481
506
510
493
461
412
358
301
247
199
166
146
143
155
178
215
256
301
343
380
407
423
425
416
395
365
332
295
262
233
211
202
200
210
228
253
280
310
338
361
378
387
389
382
367
348
326
302
280
262
247
241
242
249
261
278
298
317
335
350
361
366
366
359
347
333
318
301
286
274
266
265
269
275
285
299
312
326
338
347
353
354
354
349
343
335
325
316
308
300
298
296
297
300
305
312
319
326
334
340
345
347
347
345
340
335
329
323
317
313
310
309
312
314
319
324
329
334
338
343
343
344
344
342
340
338
336
333
330
330
329
330
330
332
335
337
341
343
344
346
345
347
347
346
346
345
344
343
342
342
341
344
345
347
349
352
354
356
358
357
358
357
357
355
354
354
354
354
356
356
359
360
362
364
364
366
367
367
367
368
367
368
367
367
367
367
368
369
371
371
373
376
379
382
384
386
388
388
389
388
387
384
381
378
375
374
371
370
368
369
369
371
372
373
374
375
375
374
371
367
364
361
356
353
351
348
346
344
344
344
343
343
345
344
345
344
343
342
341
338
338
335
333
332
330
329
327
325
324
324
324
325
325
327
330
332
333
336
335
336
335
333
332
329
325
323
320
320
318
320
320
322
323
325
326
328
328
330
331
333
334
335
334
333
332
330
327
324
323
321
320
319
320
322
325
327
331
332
335
336
336
336
335
333
331
328
327
325
324
325
326
327
330
332
333
335
337
339
340
340
341
340
339
336
335
335
333
333
333
334
335
337
338
341
342
343
343
344
341
341
341
339
338
337
338
336
337
338
339
339
340
342
344
344
345
343
344
342
342
341
339
337
336
337
336
337
336
338
338
340
341
342
344
344
346
347
346
345
345
344
341
339
337
334
332
330
330
329
331
332
334
336
337
340
340
340
340
338
337
336
333
332
330
328
328
328
330
330
333
335
338
341
344
344
345
345
345
344
341
341
339
338
337
336
336
338
338
342
343
344
346
347
347
347
348
347
346
345
342
340
340
338
337
338
336
337
338
341
341
344
347
347
348
348
348
347
346
346
345
344
344
346
346
349
352
354
356
360
362
362
364
364
364
362
362
359
357
355
352
353
350
351
353
355
358
362
365
369
373
377
380
382
382
381
379
374
370
365
360
355
351
347
345
344
344
345
348
350
353
354
358
359
360
359
358
357
355
352
349
347
344
342
340
341
341
340
342
343
345
345
344
344
343
341
339
338
338
337
337
338
339
340
341
343
345
347
346
347
346
345
343
342
340
339
338
337
339
339
341
342
344
347
349
351
352
353
353
353
350
348
