316
316
316
318
319
319
320
319
319
319
318
320
320
322
325
325
326
326
326
324
322
321
317
315
315
314
317
319
324
329
336
341
344
348
350
349
346
344
340
336
331
328
326
325
328
329
331
334
337
339
340
341
341
340
339
338
337
338
338
338
340
339
340
338
338
336
335
332
331
330
330
331
332
335
337
339
342
342
343
342
338
335
331
327
325
325
324
326
328
331
334
338
340
340
341
339
337
334
332
331
331
334
341
351
363
377
392
405
416
423
424
417
406
385
358
325
287
246
202
158
112
69
29
0
0
0
0
0
0
0
0
0
0
0
0
0
0
0
0
0
10
48
108
188
281
382
481
570
642
662
663
659
642
603
549
488
425
369
321
286
269
268
283
310
345
385
425
461
487
503
508
499
479
453
420
386
352
322
299
283
277
280
291
309
332
356
380
402
420
432
437
436
428
414
394
373
353
332
314
302
295
294
300
312
328
346
367
385
400
409
414
413
405
393
378
361
344
328
317
308
307
310
318
328
341
355
367
378
386
388
388
386
380
371
363
354
345
338
334
330
329
330
332
336
340
346
351
357
362
366
369
370
369
366
361
356
350
342
335
330
326
325
325
328
334
340
345
352
358
363
363
363
359
355
348
341
335
330
327
324
325
328
331
335
338
342
345
346
346
346
344
342
340
336
335
334
332
330
329
328
327
327
327
327
326
328
328
329
331
334
335
336
337
335
332
329
324
320
314
310
306
306
306
308
309
313
318
322
324
325
325
322
319
314
310
306
302
299
299
300
300
302
304
305
308
307
307
307
306
304
303
303
303
303
304
306
306
306
306
305
304
301
299
299
298
299
302
304
308
313
317
320
323
325
325
325
323
321
319
317
318
319
320
325
327
333
337
340
342
343
344
344
341
340
338
338
338
340
342
344
346
348
349
350
352
351
349
349
347
347
347
348
350
351
353
355
357
357
358
356
354
353
349
348
346
347
347
349
351
353
356
358
360
359
359
357
355
353
351
350
350
351
351
354
355
357
359
360
360
360
357
356
354
353
351
352
353
353
355
356
359
359
359
359
358
356
355
353
351
352
351
353
355
358
360
362
361
362
360
357
354
349
348
345
345
345
347
350
354
357
360
361
362
361
360
358
355
351
350
349
349
350
352
354
355
356
357
358
357
355
354
352
350
350
350
351
351
354
357
358
359
361
361
359
357
355
353
352
351
352
351
353
356
358
360
360
363
361
360
358
356
356
354
353
354
354
356
358
359
361
361
363
362
361
359
357
355
355
355
356
358
360
360
362
364
363
363
361
358
357
355
354
354
355
355
357
359
363
364
364
365
363
362
359
356
354
352
351
351
352
354
357
360
363
365
365
366
364
363
360
359
355
354
354
354
353
354
357
357
358
360
359
358
357
356
354
354
354
354
355
355
357
358
359
359
358
356
354
350
347
345
342
341
341
343
344
347
350
351
353
354
352
350
348
343
340
337
334
332
331
329
330
329
328
329
329
329
328
328
329
329
330
332
335
339
340
342
342
342
342
339
336
331
328
326
325
326
328
330
335
339
345
349
351
353
354
353
351
348
346
343
341
341
341
343
343
345
347
349
349
350
350
350
348
349
348
348
350
351
353
354
356
354
354
351
349
346
343
341
340
340
341
342
345
347
350
353
355
356
354
352
350
346
344
342
340
340
342
342
344
348
349
351
352
351
350
348
345
344
342
342
344
350
356
367
379
392
406
416
426
430
431
424
412
392
367
337
302
263
220
176
131
88
47
10
0
0
0
0
0
0
0
0
0
0
0
0
0
0
0
1
31
79
148
234
329
429
523
604
658
661
661
655
629
587
533
474
417
366
329
306
299
308
329
360
397
435
470
497
515
522
518
502
477
446
414
380
350
324
307
299
298
305
322
342
365
389
413
432
447
455
455
449
435
417
396
373
351
333
319
309
307
312
324
339
358
378
396
413
424
429
427
420
409
393
377
359
343
331
324
320
323
330
340
351
366
377
387
394
398
399
396
390
385
375
369
362
355
351
346
345
346
348
352
356
361
367
373
378
382
384
386
385
381
377
371
364
356
350
344
341
340
340
344
349
355
360
367
372
375
376
373
370
366
359
353
349
343
341
341
343
345
347
350
354
356
357
357
356
355
353
350
349
347
345
345
343
343
343
342
342
341
340
341
340
341
341
343
344
345
347
347
349
348
345
342
337
332
329
326
324
324
324
326
330
333
337
340
342
343
341
340
336
331
327
324
320
318
319
319
321
322
325
325
325
327
325
324
321
320
317
317
316
317
318
318
318
318
319
318
317
316
314
313
312
314
314
317
321
324
328
330
331
333
333
332
331
329
329
327
328
330
334
337
341
347
350
352
355
355
353
352
350
347
347
346
346
348
351
354
356
360
362
363
363
363
362
361
359
359
359
360
361
363
366
367
368
370
369
368
367
366
363
361
360
360
361
363
365
367
370
371
373
372
371
369
367
364
362
362
360
360
361
362
364
366
366
367
366
366
365
364
363
363
362
364
364
366
368
370
372
371
371
370
367
364
363
360
358
358
358
360
362
365
368
370
371
371
370
368
365
361
359
356
353
354
353
355
357
359
360
361
361
361
361
358
357
355
354
353
353
353
355
356
357
359
357
357
355
354
352
350
349
348
349
353
354
357
360
362
363
363
361
360
356
353
351
349
347
348
348
352
354
358
359
362
362
361
360
358
355
353
351
349
350
350
351
352
356
357
357
357
357
356
355
352
351
350
349
349
349
350
351
353
355
355
355
354
352
349
347
346
345
344
346
348
350
352
354
355
355
354
353
351
347
345
344
342
343
343
346
347
350
352
353
354
352
351
348
345
342
341
341
341
342
343
345
346
347
346
345
342
340
338
333
331
330
332
333
336
339
342
344
346
346
344
342
338
332
327
322
317
314
312
311
313
315
318
321
323
327
327
328
329
329
328
329
329
330
330
333
333
332
332
332
330
328
327
325
325
326
329
333
337
341
347
351
352
355
353
352
348
345
339
335
332
331
332
332
335
339
342
346
348
349
349
348
347
344
342
340
340
338
340
339
342
342
343
343
343
342
341
340
338
337
337
338
338
341
341
343
345
345
344
343
341
339
336
333
333
331
332
334
336
338
342
343
345
345
344
345
347
350
356
365
377
387
397
406
410
412
404
390
367
339
304
264
219
175
130
88
48
13
0
0
0
0
0
0
0
0
0
0
0
0
0
0
0
0
0
13
53
113
192
284
380
474
555
620
658
660
656
630
586
529
464
400
341
293
262
245
249
268
300
343
389
435
474
504
521
524
512
486
451
410
366
323
287
260
243
241
251
270
298
330
363
394
420
439
446
447
436
418
395
369
343
319
299
285
279
277
284
296
311
330
349
368
383
396
403
405
401
392
379
363
346
329
313
301
292
288
290
296
309
322
338
353
367
375
381
382
377
369
357
344
329
316
306
299
295
296
301
308
319
330
339
348
354
357
357
354
349
344
338
330
324
316
311
307
303
302
302
303
306
309
314
318
323
328
332
335
337
337
333
331
326
318
312
305
298
296
293
294
297
301
308
314
320
326
329
329
329
326
321
315
310
304
299
296
294
295
296
297
300
302
305
308
307
307
306
307
305
305
304
303
301
300
300
297
295
292
290
289
285
284
283
284
285
288
291
294
297
297
296
296
292
288
283
280
275
273
272
273
276
278
282
287
290
292
293
292
291
288
284
282
279
277
276
276
277
279
283
285
286
288
290
291
291
291
291
293
293
296
298
300
303
306
307
308
308
307
306
305
304
305
306
308
311
314
318
324
327
330
331
331
331
330
328
325
323
323
323
324
326
330
332
335
335
337
337
336
334
332
331
331
331
332
333
335
338
339
340
340
342
340
338
335
334
331
330
331
330
332
334
336
338
341
341
341
340
340
337
335
331
331
330
331
331
333
335
337
338
340
339
338
336
335
333
333
331
332
333
334
336
337
339
340
338
337
336
333
332
330
327
328
329
330
331
334
336
337
338
338
336
334
333
329
328
327
325
327
328
329
331
334
334
334
336
334
331
329
326
325
323
323
324
327
329
331
333
334
333
331
331
327
326
323
321
320
322
324
325
327
331
332
334
335
333
333
330
328
324
322
321
322
323
325
327
329
331
333
334
332
331
328
325
322
321
320
320
321
324
325
329
330
331
332
331
329
326
324
322
320
320
320
322
323
326
327
328
329
328
326
324
321
319
319
317
318
320
321
324
326
328
328
329
329
326
323
320
318
314
314
314
316
316
318
320
324
324
326
326
323
321
319
316
314
315
314
315
318
318
320
322
322
321
320
318
315
312
311
310
309
311
313
315
317
319
320
320
318
315
312
310
307
306
304
304
305
306
308
308
311
311
310
308
305
303
299
297
296
297
298
299
301
304
305
306
305
302
299
293
290
285
282
280
280
282
285
288
293
298
301
304
305
305
304
301
299
296
294
292
292
292
294
297
299
303
304
307
307
308
308
308
310
310
310
312
314
315
316
316
317
317
314
314
312
310
309
310
310
312
316
318
321
325
327
328
328
327
325
323
320
316
315
314
314
316
319
323
327
329
331
332
330
330
326
323
321
317
315
315
316
315
318
320
323
325
325
327
327
326
326
324
324
323
324
324
326
328
330
335
340
348
357
368
378
388
399
404
407
405
396
379
355
324
288
245
200
152
102
57
13
0
0
0
0
0
0
0
0
0
0
0
0
0
0
0
0
0
0
33
86
164
253
352
453
544
619
660
662
660
647
612
563
504
445
388
339
302
279
273
280
299
328
365
402
437
469
491
503
502
491
469
441
407
371
335
305
282
268
263
270
285
308
335
365
394
418
436
447
446
439
422
402
377
351
328
309
295
288
290
299
311
329
347
367
384
396
405
407
405
398
389
377
363
347
335
324
318
314
312
316
320
329
339
349
360
370
377
383
385
383
379
372
363
352
341
332
324
319
316
318
322
330
339
349
359
367
372
375
375
371
364
355
346
338
332
327
323
322
326
329
334
340
345
349
353
355
354
354
353
350
348
345
343
340
337
335
333
331
329
329
328
328
330
332
336
338
342
345
347
349
349
348
344
339
334
329
324
321
318
317
318
322
325
329
333
335
336
337
334
332
330
325
322
319
318
315
316
316
317
319
319
319
318
317
317
314
312
313
313
313
314
314
315
316
318
316
315
313
310
306
304
303
301
301
303
305
307
309
311
314
313
313
312
309
306
303
300
300
301
303
304
307
311
315
317
320
321
320
319
319
317
317
317
317
320
323
326
331
332
336
339
339
339
339
339
340
341
341
343
347
349
353
355
356
357
358
357
355
353
351
350
350
351
352
356
359
361
364
366
368
368
368
367
365
361
359
358
357
357
359
361
363
365
367
369
369
369
367
365
363
363
363
361
362
363
365
366
368
367
368
366
364
363
362
360
359
359
360
361
364
367
368
369
370
368
367
364
364
361
360
358
359
359
362
364
367
368
369
369
369
367
364
361
359
357
354
355
354
356
357
360
361
363
363
364
362
361
358
357
354
354
354
355
357
358
361
362
363
362
361
359
356
354
351
350
349
351
352
354
357
360
363
364
364
363
361
359
356
353
352
352
351
352
354
357
360
363
364
364
364
361
360
357
356
355
355
355
356
359
361
362
364
364
365
363
361
359
358
356
355
355
356
357
358
361
363
364
364
363
361
360
357
354
353
353
353
354
356
360
362
364
366
366
365
364
361
360
358
355
354
354
356
358
361
362
364
366
365
364
363
360
359
356
354
354
354
356
357
359
360
361
361
360
360
358
355
354
352
352
352
353
355
357
359
362
362
363
362
360
357
354
351
349
349
350
351
353
355
357
360
360
361
360
358
356
353
351
349
349
349
350
351
355
357
359
358
359
358
355
354
350
348
348
346
347
348
349
350
351
352
350
349
348
346
343
341
339
339
341
344
345
349
351
353
352
350
347
342
337
331
325
322
321
321
323
328
334
340
344
349
353
355
353
352
349
346
344
340
339
338
338
340
341
342
343
344
346
348
348
348
347
348
350
351
353
355
356
358
357
357
357
355
352
350
347
346
347
348
349
351
354
357
360
363
363
364
362
361
358
354
352
350
348
348
349
352
353
354
357
358
359
358
357
356
355
354
353
353
354
354
356
356
357
357
355
354
351
351
348
347
346
347
348
351
353
356
360
361
364
367
372
378
385
395
404
415
425
432
436
434
427
410
388
357
320
277
230
182
131
86
43
8
0
0
0
0
0
0
0
0
0
0
0
0
0
0
0
6
38
92
161
247
341
437
528
604
656
662
661
655
629
590
539
483
430
382
345
320
309
312
328
353
385
421
454
483
505
518
521
511
491
463
431
396
361
332
309
294
290
295
309
332
357
384
411
433
449
456
457
449
433
412
388
364
342
324
312
306
308
316
327
344
362
377
392
404
412
415
413
407
398
386
373
359
347
337
330
323
323
325
329
337
347
357
367
377
385
389
392
391
387
381
371
360
349
340
332
328
326
328
333
341
351
360
368
376
380
383
382
378
371
364
356
349
342
339
336
336
337
340
344
346
350
353
354
355
356
355
355
355
355
352
352
349
347
345
342
339
337
335
333
332
333
336
338
342
346
349
352
354
352
350
347
343
337
330
327
322
321
321
323
326
332
335
338
341
340
340
340
336
334
330
327
325
322
321
321
321
323
324
323
323
323
321
321
319
317
317
317
317
318
318
318
318
318
318
316
314
310
309
308
306
307
307
309
311
312
315
317
318
317
315
313
311
308
306
305
304
305
306
309
312
314
317
318
318
317
317
315
314
314
315
317
320
324
328
333
336
339
340
340
341
339
338
337
336
336
338
340
343
347
351
356
358
361
361
361
361
360
358
358
358
359
361
364
365
368
370
371
371
371
368
366
365
363
363
363
364
365
368
370
373
373
374
373
371
370
368
366
365
364
365
367
368
370
372
373
375
375
375
373
371
368
366
365
364
365
366
369
372
374
376
376
376
375
373
370
369
365
364
364
364
364
366
368
370
372
374
373
372
371
369
366
364
362
362
362
363
365
368
370
371
370
370
368
365
363
359
358
356
356
357
358
360
363
365
367
369
367
367
364
361
359
357
356
356
356
359
360
362
363
365
365
363
361
360
357
355
353
353
353
355
359
360
364
367
367
369
366
365
364
360
358
355
355
356
356
357
361
363
364
365
367
366
364
362
361
357
355
355
354
354
356
357
360
361
361
361
362
361
360
359
357
357
358
358
360
361
362
363
364
363
362
359
356
352
350
349
348
349
350
352
356
359
361
363
363
363
360
357
354
350
348
347
346
346
347
348
350
352
354
356
355
355
353
352
350
349
349
349
351
352
353
355
356
355
353
352
350
347
345
344
342
343
345
347
350
353
355
355
357
355
353
351
347
344
341
340
339
341
343
345
348
349
350
350
350
347
346
342
340
340
339
339
341
342
344
348
349
351
352
351
348
346
343
339
336
334
333
333
334
335
337
341
343
345
344
343
341
337
334
330
329
327
325
324
323
323
323
324
323
324
323
323
323
324
327
329
332
334
338
340
341
342
340
337
334
331
327
324
322
322
324
326
330
335
341
345
350
353
355
354
354
350
346
344
341
338
338
337
337
339
340
341
343
345
345
346
346
347
347
349
350
351
351
351
351
350
348
345
342
340
336
335
335
337
338
342
346
349
352
354
355
355
353
349
345
341
337
334
331
331
333
336
339
343
346
349
349
350
349
347
345
344
343
344
348
356
365
377
390
402
412
418
421
417
407
391
369
341
308
272
234
195
153
113
74
40
8
0
0
0
0
0
0
0
0
0
0
0
0
0
0
0
0
25
71
136
218
313
409
501
581
641
661
661
654
623
577
518
455
391
338
296
271
265
275
301
337
380
425
466
498
520
527
522
503
475
439
398
360
324
294
274
265
266
275
295
319
346
373
400
421
435
443
443
435
421
402
379
354
332
312
297
288
284
288
299
315
336
355
377
394
406
414
413
407
396
381
362
343
325
311
300
296
296
302
312
324
339
353
366
375
380
383
379
374
367
357
346
336
328
321
316
315
317
320
322
328
335
342
347
353
359
362
363
363
360
355
349
343
334
327
321
316
313
312
315
319
327
334
341
349
354
356
357
355
349
342
335
327
320
315
312
312
313
317
322
326
330
334
336
339
338
336
333
329
327
324
320
318
316
316
316
315
316
315
315
315
315
316
318
320
321
321
322
322
322
320
316
314
309
306
302
299
296
295
295
297
300
302
306
309
310
310
308
306
301
298
293
290
287
287
287
288
291
293
295
296
298
298
298
296
293
292
291
290
289
290
291
292
293
293
293
293
291
290
288
285
284
284
286
288
291
295
299
302
305
307
308
309
307
306
305
302
303
303
305
307
310
314
318
320
323
324
325
326
325
324
323
324
325
327
328
331
334
336
338
338
338
336
336
334
332
331
331
332
335
336
339
341
343
344
344
342
340
338
335
334
332
332
333
336
338
340
342
344
345
345
343
340
337
334
333
330
329
330
331
333
336
337
339
341
341
338
337
336
332
331
331
331
332
333
335
336
338
338
339
338
336
334
332
330
329
329
329
330
333
335
336
337
337
336
333
330
328
325
323
323
323
324
325
328
331
334
336
337
337
335
332
329
326
323
322
322
320
323
325
326
329
329
331
330
329
326
323
320
317
316
316
317
317
320
323
324
325
326
327
325
324
321
320
319
318
317
318
319
320
323
325
325
326
325
323
321
319
317
317
316
318
318
321
323
326
328
327
327
325
323
321
318
315
315
315
315
316
319
322
324
326
328
327
326
324
323
319
318
316
316
316
318
319
322
324
325
325
326
325
322
320
320
317
316
317
318
320
321
323
324
326
326
325
323
322
320
318
317
316
318
318
320
322
324
326
325
326
324
322
319
317
315
313
312
313
314
316
319
321
321
322
322
321
319
317
314
313
313
312
314
314
315
315
315
315
314
311
310
305
302
300
300
301
302
306
309
313
315
317
318
315
312
307
301
295
289
284
283
282
285
289
293
299
305
309
312
313
313
312
310
308
304
301
300
299
299
301
302
303
303
305
305
306
307
308
311
311
314
317
321
324
325
326
327
327
326
323
318
316
313
312
311
312
315
316
322
324
326
329
329
328
327
325
321
320
316
316
316
316
318
321
324
327
328
328
328
326
326
322
320
320
318
319
320
320
322
325
326
327
327
325
324
322
320
318
317
317
319
320
324
326
329
332
336
341
346
353
362
371
380
388
394
397
397
389
375
353
325
290
250
206
159
112
68
28
0
0
0
0
0
0
0
0
0
0
0
0
0
0
0
0
0
0
9
49
109
189
282
378
473
557
623
659
661
655
628
584
525
462
398
339
293
260
244
245
263
292
331
373
417
456
486
505
510
502
482
452
414
373
332
294
265
246
239
242
258
283
314
348
381
410
432
445
448
440
425
401
374
345
318
295
278
270
269
275
288
306
325
345
365
381
392
397
399
394
385
374
358
343
328
314
304
296
292
295
299
308
319
332
346
359
369
378
380
381
375
369
356
343
331
319
309
303
301
303
309
318
328
339
350
358
365
367
365
362
356
347
338
329
320
315
312
310
312
314
320
323
329
333
337
341
341
342
342
341
338
336
333
330
325
322
318
315
313
311
311
312
315
320
324
329
333
337
339
339
338
334
328
322
316
310
306
304
303
305
308
312
317
321
324
327
328
328
325
321
316
312
307
303
302
299
300
300
302
303
302
303
304
303
302
302
301
302
301
302
302
303
304
304
301
299
297
294
291
288
286
287
287
290
292
294
298
300
303
302
302
299
298
294
290
288
287
286
287
290
293
296
299
303
304
306
307
306
304
303
304
304
306
307
311
314
317
320
322
322
322
323
322
322
322
322
323
325
329
332
337
339
342
343
346
344
343
341
340
340
339
339
341
342
345
349
352
353
354
354
353
350
347
345
343
344
343
346
347
350
353
355
357
357
356
354
353
348
346
344
343
343
344
347
349
351
355
355
357
355
354
351
349
347
345
345
344
345
347
349
351
353
354
353
353
350
349
348
345
344
344
345
346
348
350
352
353
353
353
353
349
348
345
344
343
344
343
344
346
348
350
350
351
349
348
347
343
342
340
339
338
340
342
345
348
350
351
350
349
349
345
342
340
337
337
337
338
341
342
345
348
350
351
350
350
348
345
343
342
341
341
341
342
344
344
346
347
346
344
344
341
340
339
338
338
340
341
344
346
349
351
351
350
348
345
343
340
340
339
339
341
344
346
348
350
352
352
350
349
345
344
340
338
339
338
340
344
346
349
353
354
354
353
351
348
344
341
338
337
338
340
342
345
349
351
352
354
354
352
351
349
345
345
343
343
344
345
346
347
350
350
351
350
349
347
345
344
344
344
345
347
350
351
353
353
353
353
350
348
346
344
342
342
343
344
347
348
351
354
355
354
354
352
349
348
346
344
343
344
345
346
347
349
351
352
353
352
351
349
346
346
343
344
346
346
348
349
350
352
352
352
350
348
346
344
342
343
343
344
345
346
347
348
347
347
344
340
337
334
330
330
331
332
335
340
343
347
349
348
346
343
339
333
326
322
317
315
316
319
322
326
332
336
342
345
345
345
344
342
339
336
334
332
332
332
333
334
337
337
338
340
340
342
342
344
345
347
350
351
353
355
356
357
355
353
350
348
346
343
341
343
344
346
349
353
356
359
362
363
361
358
356
351
349
345
343
342
343
345
346
351
353
355
356
357
358
355
354
351
350
348
347
347
349
349
350
351
352
352
352
351
348
348
347
347
347
349
351
355
356
358
361
364
369
374
382
390
399
409
419
426
431
430
424
410
389
361
325
284
240
190
142
95
52
15
0
0
0
0
0
0
0
0
0
0
0
0
0
0
0
0
29
78
144
227
320
417
509
589
649
662
662
658
639
604
556
504
450
402
362
333
318
316
328
350
378
411
443
474
497
512
517
513
498
474
445
414
381
351
328
311
302
303
314
333
355
382
408
431
449
460
464
460
448
430
408
385
364
346
333
324
323
328
339
353
369
385
399
412
420
424
424
420
412
402
391
378
367
356
349
346
343
342
345
352
358
367
377
385
393
399
402
403
400
394
387
378
368
360
352
346
342
342
346
352
360
367
376
384
389
391
391
390
383
376
369
362
355
351
347
347
348
350
353
357
361
364
367
368
368
369
369
367
366
363
362
360
358
356
353
352
350
347
346
347
347
350
352
356
360
363
366
367
366
364
361
357
352
346
342
339
336
338
340
343
345
349
352
355
357
355
353
349
346
341
336
332
331
329
330
330
333
334
335
337
337
337
334
332
331
329
328
327
327
327
327
326
326
326
326
324
321
320
317
316
316
318
318
321
324
326
327
328
327
326
323
319
315
311
308
307
308
309
312
315
319
322
325
326
327
326
324
322
320
318
318
320
322
324
328
332
335
339
340
342
343
341
342
341
340
339
340
342
344
347
351
353
356
357
358
357
357
356
355
355
357
358
360
362
363
366
366
366
364
363
362
359
356
355
355
356
357
360
364
366
369
370
371
370
368
365
362
357
354
353
351
352
354
357
358
361
362
364
363
363
360
358
356
353
352
352
353
354
357
358
361
361
361
361
359
357
354
352
351
352
351
352
354
357
358
359
360
359
358
355
354
351
349
349
348
349
351
352
353
355
356
356
356
354
353
351
348
347
345
347
347
350
351
353
354
355
355
353
351
349
345
343
340
339
341
342
345
347
350
353
353
353
352
351
348
346
342
342
341
340
342
345
347
349
351
352
352
351
349
348
345
344
341
340
341
342
344
347
349
350
351
351
350
348
346
344
342
341
340
340
342
344
348
349
350
350
349
348
346
344
342
340
340
339
340
343
345
346
348
349
350
350
349
346
344
341
340
340
341
341
343
345
347
348
350
350
349
348
346
342
341
339
338
339
340
343
345
348
350
351
350
350
348
346
345
342
341
341
341
342
344
347
348
350
349
349
347
346
343
342
341
339
339
340
343
343
345
347
348
347
347
344
342
340
338
336
337
337
338
340
343
345
348
348
348
346
345
341
337
336
334
332
333
334
337
339
343
344
346
346
345
343
341
338
335
335
334
333
335
336
339
341
342
342
343
340
340
336
335
333
332
333
333
334
337
339
341
341
341
341
340
337
333
329
326
323
323
323
323
323
325
328
329
332
333
332
332
330
328
325
323
323
321
319
316
314
313
311
309
308
306
305
307
307
309
313
315
318
322
325
328
328
329
326
323
319
316
313
311
309
311
311
315
320
324
328
333
334
335
336
335
334
332
330
330
328
328
327
328
329
331
331
330
330
328
328
327
326
326
328
329
331
333
336
337
338
337
336
334
331
328
325
323
324
324
325
328
331
334
336
338
339
338
336
334
330
326
323
321
321
320
323
323
326
328
330
332
332
330
329
327
324
324
323
325
330
337
348
360
373
385
398
406
411
409
403
390
369
344
312
275
236
193
148
104
60
22
0
0
0
0
0
0
0
0
0
0
0
0
0
0
0
0
0
0
26
77
151
240
337
438
531
611
660
661
660
647
610
559
496
431
371
320
281
261
255
267
291
326
364
404
442
470
489
496
492
475
450
417
381
347
314
288
269
260
259
269
285
307
332
359
385
406
422
429
430
423
409
389
367
343
320
298
284
274
272
278
289
306
325
345
366
381
394
400
399
393
382
364
348
330
315
303
294
292
294
299
310
321
332
344
355
362
366
368
366
363
357
350
342
334
326
320
314
311
311
311
314
318
324
330
339
344
351
355
356
355
353
347
339
331
322
317
310
305
305
306
311
317
324
331
338
342
345
344
342
338
333
326
321
316
313
310
310
312
316
318
321
324
326
329
329
329
326
326
324
322
321
321
319
318
318
316
316
315
312
312
310
309
309
310
312
314
315
318
319
319
319
316
312
309
305
301
299
297
297
298
301
304
308
310
314
314
315
313
309
306
302
299
296
294
294
295
297
298
300
303
303
303
302
300
299
296
294
292
292
293
293
294
295
296
296
296
295
294
293
292
292
293
294
297
298
302
305
307
309
310
311
309
307
305
303
303
303
303
307
310
316
321
327
331
335
337
337
336
336
333
333
331
331
330
332
336
338
341
344
348
349
350
351
351
349
349
349
350
351
352
355
356
358
358
360
359
358
356
354
354
353
353
354
355
357
360
360
363
363
362
362
359
357
355
352
352
352
353
354
356
360
362
363
364
362
361
359
357
356
354
352
352
352
354
356
360
362
364
364
363
363
361
359
356
354
354
353
354
356
357
360
362
363
364
363
361
360
358
357
355
354
355
356
357
359
362
363
365
364
364
363
361
358
357
356
357
359
360
363
365
368
368
369
369
368
366
363
361
359
357
358
359
360
363
366
367
369
368
367
365
363
360
359
356
355
357
359
361
365
369
371
374
375
373
371
370
367
363
361
359
357
358
360
360
364
367
369
370
370
370
369
368
367
365
364
364
366
366
368
369
370
370
369
369
367
366
366
364
364
365
365
367
369
370
372
373
374
373
371
370
367
366
364
363
363
365
368
370
372
375
377
377
378
376
374
371
368
367
366
365
365
366
368
370
372
373
375
375
375
374
373
371
370
369
369
369
370
372
372
373
373
372
370
369
367
366
365
363
364
367
369
373
375
377
379
379
378
375
371
368
364
361
360
358
359
362
363
367
370
372
373
373
372
371
368
364
362
360
360
361
362
364
366
370
371
372
374
372
371
369
367
367
366
365
367
366
367
367
368
367
365
362
360
358
355
355
354
355
357
359
363
366
368
367
366
363
359
353
348
341
335
331
329
330
333
338
344
349
353
358
360
361
360
358
357
353
349
347
345
344
346
347
348
349
351
352
354
354
355
355
357
358
361
363
365
367
369
368
369
368
365
363
361
357
356
354
355
357
359
362
366
371
374
375
375
376
373
371
367
363
361
359
360
360
362
365
366
369
369
371
369
368
366
365
365
363
364
364
365
366
369
369
370
371
369
368
366
363
361
360
359
360
363
365
368
371
375
377
380
383
389
395
401
410
417
425
431
435
434
427
414
394
367
336
298
256
212
165
122
81
43
13
0
0
0
0
0
0
0
0
0
0
0
0
0
0
17
54
109
178
262
351
443
525
596
647
660
659
651
625
584
536
482
432
386
351
331
323
332
352
381
416
453
487
515
535
545
543
530
507
477
441
403
368
337
313
299
297
305
320
344
373
403
432
455
472
480
479
470
453
432
407
381
358
339
325
319
320
329
340
357
374
392
407
418
427
430
427
422
413
402
389
375
362
353
346
341
340
343
347
355
364
373
383
392
399
404
406
404
400
393
381
370
360
351
343
339
339
340
345
352
361
372
379
386
390
392
390
385
380
371
363
355
349
344
342
343
346
349
354
358
361
365
366
368
367
365
364
362
359
356
353
351
349
347
344
343
342
341
341
341
343
345
348
352
355
356
358
357
355
350
346
341
335
331
328
326
327
328
331
337
341
344
348
349
349
348
344
340
335
330
327
322
321
319
320
322
323
325
327
327
327
328
326
325
325
323
323
322
321
320
321
319
320
318
316
314
310
309
307
306
307
308
311
313
314
316
318
319
318
317
314
310
306
303
302
299
299
301
303
306
308
313
315
317
318
316
315
312
312
309
310
311
313
316
318
323
326
327
329
329
329
329
329
330
331
333
336
338
341
344
346
348
348
350
348
347
346
345
345
346
348
351
355
357
361
363
365
365
363
361
359
356
352
350
350
351
352
355
357
361
363
365
367
366
365
361
359
357
355
356
355
355
358
359
360
361
363
362
361
360
357
355
353
351
352
352
353
356
356
358
360
360
358
358
354
351
349
347
347
348
349
350
354
357
358
361
361
362
359
357
354
350
348
345
344
343
344
344
346
347
349
349
350
350
349
348
348
347
347
348
350
350
352
353
352
352
351
349
347
345
342
342
340
341
342
345
347
350
352
353
352
352
348
347
343
338
337
333
333
335
335
338
342
345
346
349
350
349
348
346
344
342
340
338
337
336
336
338
338
339
340
340
338
337
336
335
337
336
338
341
343
344
347
348
346
345
343
338
335
333
330
329
329
330
332
335
338
341
344
345
345
344
342
339
334
332
331
330
329
331
331
333
336
338
338
338
337
335
334
333
331
331
332
333
335
337
339
340
341
341
338
336
334
331
326
326
324
324
325
325
327
329
331
331
332
330
328
326
325
321
321
320
321
322
323
325
326
325
324
322
320
314
310
306
303
303
303
306
307
312
316
318
322
322
324
323
321
320
317
316
312
312
312
314
315
317
320
322
323
324
326
326
327
326
328
329
329
330
333
335
335
336
334
334
331
328
325
321
320
317
319
320
323
327
332
334
338
339
340
338
335
331
327
324
320
317
317
317
319
323
326
328
331
332
333
332
331
330
329
328
328
326
327
327
328
328
329
328
326
325
324
323
322
321
322
323
324
327
329
331
335
338
343
347
353
361
365
371
374
376
375
370
361
345
325
298
267
231
191
150
106
67
29
0
0
0
0
0
0
0
0
0
0
0
0
0
0
0
0
0
0
23
70
139
222
313
408
494
567
621
650
654
639
602
550
487
421
358
305
267
245
240
255
281
319
363
409
452
484
507
517
513
497
467
431
389
344
304
270
246
233
233
245
266
297
330
365
397
424
442
450
446
434
411
385
355
324
297
277
264
260
263
274
292
313
337
358
376
391
400
401
397
388
376
361
343
326
311
299
290
287
288
292
301
313
324
339
352
363
370
376
376
372
365
354
341
328
316
304
297
292
293
295
304
313
324
335
346
353
358
360
358
353
346
336
326
317
310
305
303
302
305
311
318
324
330
336
338
340
341
339
336
333
330
324
321
317
313
310
307
306
306
306
307
310
313
318
321
326
329
332
333
332
327
323
317
311
304
300
295
293
292
295
298
303
308
312
317
319
320
319
316
313
306
301
297
293
290
290
290
291
295
298
299
301
300
301
298
297
295
293
292
290
291
290
292
291
290
289
287
285
283
282
282
280
280
281
284
285
288
288
290
290
289
286
284
281
278
276
275
274
274
278
279
285
289
291
294
296
297
296
296
294
293
292
294
295
297
301
304
306
309
310
311
312
312
311
312
312
312
315
318
321
325
328
330
332
334
333
332
332
330
328
328
327
329
329
332
334
337
340
342
342
342
341
340
337
337
335
335
334
335
336
339
341
344
344
344
344
342
341
339
339
339
339
340
339
341
342
343
343
344
343
342
340
339
337
337
335
337
338
341
344
346
347
350
349
349
347
344
341
338
336
334
335
335
338
341
344
346
348
350
349
348
345
343
341
338
336
335
337
338
339
341
343
344
344
344
343
342
342
341
339
340
341
343
345
348
349
350
350
351
348
347
344
342
339
339
340
341
342
343
347
350
350
351
352
351
349
347
345
345
343
344
344
346
349
351
351
354
353
353
352
351
349
346
344
344
344
345
347
350
353
355
357
358
358
357
355
353
352
349
348
348
349
351
352
354
356
357
358
357
355
353
352
350
349
350
349
351
353
354
356
357
359
358
358
356
353
351
351
350
350
352
353
357
358
361
361
361
359
358
356
351
350
348
347
348
348
352
353
357
358
359
359
356
354
350
346
342
338
336
336
336
338
340
344
346
350
350
351
349
347
343
338
336
331
329
326
326
326
328
328
329
330
331
331
330
330
330
330
331
332
335
337
338
338
339
337
336
334
331
329
326
325
327
328
332
337
342
346
352
354
356
355
354
350
345
342
339
336
334
336
337
340
343
345
347
350
350
351
351
347
347
346
346
344
344
345
347
346
346
347
347
345
344
342
341
339
339
340
341
344
344
347
347
349
347
345
343
340
338
334
333
334
334
336
339
342
344
346
348
348
347
344
341
339
340
340
346
354
364
377
390
402
410
415
415
407
391
367
338
305
266
224
182
139
98
60
25
0
0
0
0
0
0
0
0
0
0
0
0
0
0
0
0
0
8
44
99
175
261
357
451
538
607
654
661
658
641
601
545
481
415
354
304
268
251
251
270
301
343
389
434
473
503
520
524
512
488
455
416
373
333
298
273
258
254
262
276
301
328
358
386
411
428
439
442
438
424
407
384
360
338
316
298
288
283
284
291
304
321
341
360
377
393
402
405
405
396
384
368
350
330
314
301
293
290
292
299
310
324
337
350
361
369
373
372
369
361
350
340
329
319
313
308
306
306
309
313
320
325
331
337
340
343
345
346
346
344
341
337
333
326
321
316
311
307
306
304
306
310
315
321
326
332
336
339
339
337
332
327
318
312
304
299
295
294
296
300
304
309
314
320
322
324
324
322
319
314
308
304
301
298
296
296
298
298
299
300
300
300
300
300
299
300
300
300
302
302
303
301
301
298
296
293
290
285
282
280
280
280
282
285
288
292
295
297
297
296
294
290
285
281
278
274
273
274
274
276
279
281
283
285
284
284
282
281
279
276
276
274
274
274
275
276
276
276
276
276
274
274
272
272
273
275
277
280
284
286
290
293
293
295
294
293
293
291
291
293
295
298
300
306
309
313
318
319
320
321
319
317
315
314
312
313
315
317
319
323
325
329
330
332
331
330
328
327
325
323
323
323
325
328
329
332
333
334
335
333
332
330
330
328
329
328
331
331
333
334
335
336
334
333
331
327
325
323
322
321
323
324
326
330
332
335
335
336
334
332
329
324
323
320
319
319
321
324
326
329
332
334
333
334
331
329
328
325
325
324
323
324
325
326
327
326
326
325
323
322
319
318
316
315
316
318
321
323
327
328
331
331
331
329
326
324
322
319
320
320
320
323
325
327
329
331
330
329
329
326
323
320
318
318
319
319
322
324
326
327
328
330
328
326
326
323
321
320
320
321
322
324
325
328
328
328
328
327
326
323
322
321
321
321
322
325
328
330
331
332
333
332
331
328
326
324
323
322
324
325
328
331
332
333
335
335
333
332
330
327
325
323
324
325
327
329
332
335
337
337
337
336
335
332
331
329
327
328
329
331
333
336
338
338
339
339
338
336
334
331
331
329
329
332
334
337
340
341
343
344
342
340
339
337
334
331
331
330
332
333
335
335
336
335
335
334
331
329
325
322
323
323
325
327
331
334
337
338
339
337
332
327
322
318
312
309
306
307
310
313
318
323
328
329
332
333
332
329
329
326
325
323
322
322
323
325
327
328
330
330
330
331
330
331
331
332
334
335
338
341
343
346
345
346
344
342
339
336
335
333
332
335
337
339
341
344
347
347
348
346
345
343
340
337
336
335
336
336
338
339
342
343
345
343
343
342
342
339
338
338
338
339
339
340
342
343
342
343
340
338
336
334
332
332
331
332
335
338
338
341
343
344
344
346
345
348
352
359
370
379
391
403
411
417
418
411
395
371
342
303
262
215
167
120
76
37
3
0
0
0
0
0
0
0
0
0
0
0
0
0
0
0
0
0
22
69
136
219
312
411
503
584
645
661
661
656
629
586
529
469
407
352
308
277
264
266
283
313
350
392
436
472
500
518
521
512
489
458
422
380
342
309
283
268
263
271
289
312
341
372
400
425
440
450
450
440
424
405
381
357
335
317
304
297
296
301
311
324
339
356
372
387
398
405
407
404
396
386
372
357
342
328
317
308
305
307
312
323
337
350
364
376
387
393
393
390
382
372
359
347
334
323
318
314
316
321
328
337
346
355
362
369
372
373
370
365
359
353
345
341
336
331
328
326
326
328
328
330
334
337
341
344
349
353
355
354
355
352
348
341
337
331
326
321
317
316
318
321
325
331
336
340
343
345
344
341
338
332
326
320
316
313
312
312
313
317
319
320
323
325
324
324
321
318
314
312
310
307
306
306
306
306
307
305
306
303
302
301
300
299
298
300
300
301
301
303
304
302
302
299
296
294
291
288
286
284
286
286
289
291
293
296
296
296
295
293
290
288
286
283
283
284
284
285
289
291
294
296
296
297
296
296
294
294
293
295
297
300
304
309
313
315
317
318
318
320
319
318
318
320
320
323
325
328
332
334
338
339
339
339
339
339
337
338
338
339
341
344
345
349
351
351
351
351
350
349
346
345
345
345
345
345
347
349
350
352
352
353
353
351
348
347
346
345
346
345
346
349
350
351
352
352
350
348
347
345
342
340
340
340
341
343
347
350
352
354
355
354
353
351
346
344
342
340
341
340
343
345
347
350
353
353
353
353
351
349
347
345
346
346
345
347
349
350
352
352
352
351
349
347
344
343
342
342
344
345
347
349
350
353
352
352
351
349
347
344
342
342
341
342
344
346
350
352
353
354
354
353
350
348
345
343
342
342
342
345
347
350
352
353
354
353
354
351
350
349
346
347
347
348
349
352
354
353
354
354
353
352
350
347
346
345
346
346
349
351
354
355
356
357
357
356
353
350
348
345
346
344
346
348
350
352
354
356
356
356
354
354
350
347
346
344
344
345
346
349
349
351
353
353
352
351
350
346
344
343
343
343
344
346
349
350
353
354
354
352
351
348
344
341
340
339
340
341
344
345
348
350
352
352
351
350
348
344
342
341
340
341
343
344
345
347
347
348
347
346
345
342
340
339
338
338
339
342
345
347
348
349
350
349
346
344
341
339
338
337
336
339
340
344
346
347
349
349
348
346
344
341
339
337
337
336
338
339
341
344
346
348
349
348
347
344
341
338
337
336
336
335
336
335
335
336
335
333
332
331
330
328
329
329
331
332
334
336
338
336
335
332
329
325
321
317
315
314
315
317
320
325
330
335
339
341
343
341
340
337
332
329
325
323
323
324
325
328
332
335
338
341
342
343
342
343
342
341
342
342
341
343
344
344
344
344
344
343
343
340
339
339
340
340
342
346
347
350
353
353
353
351
348
346
344
341
338
338
338
339
342
343
346
348
350
351
351
349
347
344
342
340
338
339
340
340
343
344
346
346
347
346
346
343
343
341
339
339
340
343
344
346
349
353
358
364
372
381
392
402
412
419
425
424
418
407
388
361
328
288
243
196
147
98
54
14
0
0
0
0
0
0
0
0
0
0
0
0
0
0
0
0
0
16
59
125
206
303
402
500
586
652
663
661
659
639
601
551
495
438
387
344
311
294
289
299
319
348
383
419
452
479
497
506
504
491
469
441
407
373
340
313
292
282
279
289
304
328
354
381
409
429
443
450
446
436
419
399
374
351
330
314
304
300
301
310
323
338
355
371
385
396
401
403
401
395
385
374
361
349
339
330
324
320
320
323
328
335
344
355
364
373
381
385
385
383
379
370
362
351
342
331
326
321
320
323
329
338
347
357
364
371
375
375
372
366
358
350
340
334
328
324
323
325
327
332
336
342
347
350
352
353
353
351
350
346
344
342
339
337
334
333
332
330
328
328
327
328
329
333
335
339
341
345
345
345
342
339
335
331
325
320
318
316
315
317
320
323
327
330
333
334
333
330
326
322
318
313
309
306
306
306
307
311
313
314
317
316
316
314
312
309
307
304
303
302
303
302
303
304
303
303
302
301
300
297
296
294
294
295
295
298
299
300
301
299
299
298
296
293
291
288
288
287
289
292
293
296
299
300
302
302
302
301
301
298
298
300
301
304
307
311
316
321
324
326
328
328
326
326
324
324
324
326
328
330
333
337
341
345
346
349
348
347
347
346
346
346
346
346
350
350
352
355
356
356
355
354
353
351
349
349
350
350
353
355
356
357
360
360
359
357
356
353
351
349
348
350
350
352
354
356
358
359
359
359
356
354
351
349
346
345
346
349
349
352
355
356
358
357
358
355
353
352
348
347
345
347
348
348
351
353
356
357
356
357
355
354
351
349
347
346
345
347
348
350
350
351
351
351
351
349
347
345
344
343
343
344
345
346
347
349
350
350
350
348
345
344
342
339
338
339
340
343
345
347
348
350
349
347
345
343
339
337
336
334
334
336
338
340
342
345
347
347
347
346
344
341
340
339
338
339
340
342
342
344
346
348
347
347
345
344
341
339
338
338
339
339
342
343
344
346
347
345
345
343
341
340
338
338
339
340
343
344
346
348
350
350
349
347
344
341
340
339
339
340
341
343
345
349
351
352
351
350
347
345
341
338
337
335
335
336
338
339
342
345
346
346
347
346
343
342
338
337
336
336
336
338
338
341
342
343
343
341
340
339
337
335
336
335
336
338
341
342
343
345
345
342
340
337
335
331
330
330
329
331
334
336
340
342
343
343
344
342
339
338
335
333
332
333
332
334
337
339
340
341
342
341
341
340
338
337
336
335
337
337
339
341
343
344
344
343
342
340
338
338
336
336
336
337
340
342
344
347
348
346
346
344
342
339
337
334
335
335
338
339
343
346
347
348
349
347
346
344
341
338
337
335
335
336
338
341
344
344
345
343
342
338
335
330
328
325
325
327
328
332
335
340
343
344
343
342
338
335
329
323
318
314
312
313
314
316
320
323
328
331
334
334
335
335
333
332
332
331
330
331
331
330
330
331
330
329
329
327
329
330
332
334
339
342
345
347
350
350
351
348
346
342
338
335
333
332
332
333
336
339
341
344
346
346
347
345
344
341
339
338
338
338
338
340
341
344
344
345
344
344
343
343
340
340
341
341
343
344
346
348
349
349
348
346
344
341
336
335
332
334
335
338
340
345
349
351
353
355
354
352
350
350
352
355
362
373
385
399
412
421
429
429
424
410
390
359
324
282
239
190
144
98
54
16
0
0
0
0
0
0
0
0
0
0
0
0
0
0
0
0
0
13
52
115
194
289
388
487
576
647
662
662
659
647
612
564
508
450
395
347
311
289
283
293
314
346
383
422
459
487
506
513
507
492
467
435
398
364
332
308
290
283
285
296
314
336
361
387
409
425
436
441
440
430
417
399
379
359
340
324
313
307
306
311
320
332
348
365
380
395
404
410
413
409
401
387
373
356
340
326
318
311
311
316
324
337
350
362
375
384
391
392
390
385
376
366
354
344
337
332
330
329
331
335
342
347
352
358
362
364
365
364
362
360
356
352
349
345
341
337
336
332
332
333
334
336
340
345
349
354
357
359
361
357
356
350
345
338
333
328
325
324
324
328
333
338
342
346
350
352
353
350
347
343
337
334
329
327
326
326
326
328
329
331
331
333
332
331
330
328
329
327
326
326
326
326
325
324
323
322
320
316
315
311
310
310
310
313
315
316
318
318
318
317
315
311
307
303
300
299
297
296
298
301
303
306
308
310
310
309
306
303
299
295
291
289
289
289
291
293
295
297
301
302
302
301
301
300
297
298
298
298
298
301
303
304
305
307
307
308
306
307
308
309
311
313
318
321
326
330
333
336
338
338
338
335
335
332
333
332
333
336
339
343
347
351
353
354
355
354
352
349
347
346
345
343
343
346
347
349
351
353
353
354
353
353
351
351
349
349
350
350
352
353
355
354
355
354
354
351
350
347
346
345
345
346
349
351
353
355
356
355
355
355
351
349
347
345
344
343
345
346
350
352
353
355
355
355
354
351
347
345
342
341
340
341
343
344
346
349
349
350
349
348
344
342
340
338
336
337
339
339
342
343
344
346
346
344
343
342
339
336
336
336
336
338
338
340
343
344
345
344
344
341
341
339
336
336
335
336
337
339
341
343
343
344
344
342
341
339
336
337
335
335
336
338
341
344
345
345
345
344
341
340
338
336
333
332
334
334
336
338
340
340
341
343
341
340
338
335
333
333
333
333
334
336
338
340
343
343
343
341
339
338
337
335
335
335
336
337
341
342
344
345
346
345
343
342
339
336
333
333
333
334
335
338
339
341
343
344
344
342
340
339
336
334
334
335
335
338
340
343
344
345
346
345
344
342
340
336
335
336
335
336
337
339
342
342
343
342
340
338
336
334
333
332
330
331
333
335
338
339
341
343
342
341
340
337
333
333
332
332
333
335
336
339
341
342
341
342
339
337
334
330
329
329
328
331
332
335
337
339
341
341
342
341
339
336
334
331
330
332
332
333
335
337
339
340
341
339
338
336
335
333
332
332
332
333
335
336
338
339
339
338
338
336
334
331
330
330
329
330
334
335
338
340
342
344
343
341
338
337
334
331
330
330
330
332
335
337
341
342
345
344
344
343
341
340
337
336
336
335
335
336
337
337
337
336
335
334
331
330
329
327
328
328
329
332
333
334
336
337
337
335
334
332
328
325
322
320
320
320
320
319
321
321
322
323
323
323
325
324
324
326
328
328
331
333
335
336
336
336
336
333
331
328
325
324
325
325
328
333
336
341
344
347
350
348
349
345
343
341
338
338
338
338
339
343
344
348
347
349
349
348
346
345
344
342
343
343
344
346
349
349
351
352
351
349
348
346
343
342
342
342
344
346
349
350
353
354
354
353
350
346
343
341
339
337
338
339
341
344
347
348
350
351
349
349
346
343
341
340
341
343
350
359
371
383
398
410
420
426
428
423
411
393
367
337
300
262
219
174
130
84
43
7
0
0
0
0
0
0
0
0
0
0
0
0
0
0
0
0
0
31
84
155
244
344
444
540
621
661
662
661
654
627
581
527
468
412
361
324
300
293
300
322
350
386
424
457
484
504
511
508
493
471
442
409
377
346
323
304
294
293
300
314
331
354
378
401
420
435
442
445
439
429
412
392
371
349
331
315
307
303
306
315
328
347
365
384
399
411
417
416
410
400
386
368
351
336
323
315
311
312
318
327
338
351
362
371
377
383
383
381
377
370
362
353
345
337
332
326
323
324
325
328
334
341
346
353
360
364
368
370
370
366
362
356
348
340
332
326
321
320
320
323
330
336
345
352
359
364
365
363
360
355
347
340
333
326
322
320
320
323
327
330
336
340
342
345
346
347
345
343
341
337
336
335
332
331
329
327
327
324
323
322
321
322
323
324
327
330
332
333
334
333
331
328
324
319
315
312
308
307
307
310
311
316
320
323
325
326
325
323
318
314
309
305
301
299
299
300
302
304
307
310
313
313
313
313
311
309
309
307
307
307
306
306
306
307
307
306
305
304
301
300
300
299
301
303
304
308
310
315
316
317
318
318
317
316
314
314
313
314
316
320
324
329
331
335
338
338
339
337
337
336
336
337
339
342
346
349
351
356
358
359
358
357
356
354
352
350
351
350
354
355
358
361
364
366
367
367
366
365
362
362
361
361
362
365
368
371
375
376
377
377
374
371
368
364
361
359
359
360
361
364
368
370
374
375
375
375
373
370
367
364
360
360
360
360
361
364
366
367
368
368
367
367
365
364
362
363
362
364
365
368
368
369
370
369
368
367
365
361
360
358
358
359
360
362
365
367
369
371
370
369
366
363
360
358
355
354
354
356
358
360
362
365
367
367
366
366
364
362
361
360
359
360
362
361
363
364
363
363
363
362
359
356
354
352
353
353
354
356
359
362
364
365
365
363
362
359
356
353
352
350
349
351
352
355
356
358
361
360
360
359
358
357
355
353
353
354
355
357
358
361
362
362
362
361
359
358
356
354
353
353
354
355
357
359
358
359
360
359
357
354
353
350
350
350
350
352
353
354
356
357
358
358
356
355
353
351
348
347
348
348
351
353
357
360
361
363
364
362
360
358
355
352
349
349
349
349
351
354
356
358
360
360
359
358
357
355
354
351
350
351
350
353
353
355
356
356
355
354
350
349
347
344
344
344
345
348
350
353
357
358
359
358
357
353
350
347
344
342
341
342
344
346
348
350
352
352
353
352
349
346
345
343
343
344
346
346
348
351
353
352
353
352
351
349
347
345
343
344
343
345
347
347
348
349
348
347
345
341
340
338
335
335
337
338
340
345
347
348
348
348
344
340
334
327
322
317
314
313
313
317
322
326
333
336
340
343
343
343
341
338
336
333
333
332
329
330
329
330
332
333
333
333
335
335
337
339
341
344
347
350
353
353
354
353
350
347
342
339
335
332
330
332
333
336
341
345
349
353
355
355
355
356
352
349
348
345
343
342
342
343
344
345
345
346
346
345
346
344
344
345
344
345
348
349
350
351
352
351
350
349
346
343
341
338
337
337
338
341
345
347
350
353
354
355
357
358
362
366
372
381
390
398
406
410
410
403
391
369
342
308
269
226
183
139
96
56
23
0
0
0
0
0
0
0
0
0
0
0
0
0
0
0
0
0
27
74
139
222
315
410
500
578
636
661
661
654
629
586
532
471
411
358
316
289
277
282
302
336
376
419
461
495
521
534
535
521
495
460
418
377
336
302
278
264
263
274
293
321
353
385
415
438
454
461
459
446
428
404
378
353
332
312
301
297
298
306
321
337
353
372
388
401
409
415
413
408
399
388
373
358
343
330
321
314
312
314
320
328
341
354
367
379
389
395
397
395
387
378
366
353
340
331
323
319
320
324
330
340
350
359
369
374
379
379
377
374
369
362
356
350
344
341
337
335
335
335
337
339
342
346
348
352
356
359
361
362
363
361
359
354
348
343
337
332
328
324
325
326
329
336
342
348
354
357
361
360
358
353
347
340
334
328
325
324
323
325
329
333
336
340
344
345
345
345
343
341
338
336
332
331
326
324
321
318
318
316
314
313
313
313
315
317
320
323
324
327
326
327
325
322
317
313
309
305
302
301
300
300
303
306
311
314
317
317
318
317
314
311
306
303
300
299
298
299
301
303
305
307
308
310
309
308
309
308
308
308
308
312
313
315
318
321
323
324
325
324
324
324
324
324
326
329
332
336
342
345
347
349
350
349
347
345
344
343
342
343
346
350
354
359
362
366
367
367
367
365
362
358
355
352
351
351
351
353
355
359
362
364
366
366
367
366
365
365
362
362
362
362
362
361
362
360
359
358
355
355
353
353
352
353
356
360
363
364
367
367
367
366
363
358
355
351
348
346
347
347
349
353
358
363
366
368
370
369
368
365
363
358
357
353
351
351
352
353
355
355
356
357
357
356
355
353
352
352
352
353
353
352
355
355
354
354
352
351
349
346
345
344
345
347
350
353
355
356
359
358
358
355
352
347
344
341
339
338
339
341
344
346
350
354
356
357
355
353
350
348
345
342
339
340
340
340
342
346
348
350
351
351
350
349
348
347
345
344
345
344
345
347
348
347
346
347
345
343
340
340
339
339
340
341
343
347
348
350
351
350
349
347
344
340
338
336
336
335
336
338
340
341
343
345
345
346
344
344
343
342
339
340
341
342
344
346
348
348
348
348
345
343
342
339
337
336
336
336
337
339
340
344
345
346
345
344
342
342
339
340
338
339
339
341
344
345
345
345
343
343
341
336
334
331
329
329
328
330
331
332
335
335
335
335
333
332
330
329
327
326
328
329
330
330
331
331
330
327
324
319
315
311
307
306
307
309
313
318
323
328
332
336
337
338
336
333
329
324
320
316
314
314
314
318
320
325
329
332
334
337
338
339
339
340
339
339
341
340
341
341
340
338
338
336
334
333
330
330
330
332
336
339
341
345
349
351
351
350
347
344
341
338
335
333
333
332
335
338
342
344
347
348
350
350
348
346
343
340
338
336
336
336
339
340
342
344
345
346
347
345
344
343
343
342
343
343
344
347
349
352
357
362
369
376
385
390
396
398
398
395
386
370
348
323
292
255
216
174
131
89
50
14
0
0
0
0
0
0
0
0
0
0
0
0
0
0
0
0
12
48
105
181
268
362
455
539
606
650
659
657
635
596
543
483
422
366
321
289
275
278
296
326
363
405
446
482
507
524
528
519
499
468
433
394
354
320
291
272
263
264
277
298
324
356
386
415
438
452
456
453
439
420
393
365
339
314
297
286
282
287
297
314
334
354
374
390
401
406
407
401
391
378
364
349
334
323
315
309
308
311
316
325
334
345
353
361
367
371
374
372
369
362
353
344
334
324
317
311
309
308
311
319
327
336
346
354
361
364
365
362
357
349
339
329
321
314
310
307
309
312
318
325
331
336
340
342
344
342
340
336
330
327
322
320
317
316
316
315
316
317
316
316
318
318
319
320
322
322
326
326
327
325
325
322
318
315
311
306
303
302
301
303
305
308
312
315
317
317
318
316
314
309
304
301
297
295
294
294
296
297
300
302
302
304
304
301
300
297
296
295
293
292
292
293
294
294
296
296
294
293
291
288
285
285
284
285
287
289
291
293
294
293
294
291
288
285
281
279
278
277
276
278
282
286
289
293
296
296
298
297
296
295
294
294
294
296
299
302
305
309
313
315
318
320
319
319
320
320
321
322
323
326
330
333
336
337
340
340
339
339
337
337
337
337
338
341
344
345
349
352
353
353
354
351
347
345
342
340
340
339
340
343
347
349
352
354
356
356
355
354
350
347
344
343
341
343
344
345
347
349
350
351
350
350
348
346
344
343
344
343
345
346
348
349
351
350
351
348
346
345
343
342
341
342
343
345
349
351
353
354
355
354
352
348
346
342
340
339
338
339
340
343
344
347
347
349
347
346
345
342
340
339
337
337
339
340
341
344
346
347
348
347
346
343
342
338
338
337
337
338
341
341
344
345
346
345
345
343
342
338
338
337
337
336
337
338
340
342
343
342
342
342
340
337
335
334
333
332
334
335
337
340
340
340
341
339
337
335
332
331
329
329
329
331
332
335
337
339
340
339
338
336
333
330
327
325
325
326
328
330
333
335
338
339
338
338
335
332
329
327
324
324
324
325
327
329
331
333
334
333
333
331
329
327
324
324
323
323
324
325
327
327
328
327
326
323
321
320
318
315
314
315
317
317
319
320
320
319
318
316
313
310
307
306
306
305
306
308
309
310
313
312
312
309
305
302
297
293
290
287
287
289
292
294
299
303
308
310
311
309
308
304
302
300
296
295
295
295
298
299
301
305
305
306
307
306
307
308
308
311
313
316
319
323
325
327
326
325
323
318
315
312
308
307
306
307
311
314
318
322
325
327
326
326
322
318
315
310
308
305
305
307
308
311
314
318
320
321
322
321
320
317
317
313
313
310
311
312
312
314
314
314
314
313
313
311
310
311
311
312
315
315
318
321
322
325
328
331
336
343
350
359
367
375
378
382
378
369
353
330
301
267
227
183
138
91
48
8
0
0
0
0
0
0
0
0
0
0
0
0
0
0
0
0
0
0
0
25
72
145
232
327
423
512
586
640
660
657
639
598
542
475
407
343
288
248
224
218
231
257
295
340
386
431
467
493
505
503
487
460
424
381
337
295
261
235
223
222
235
256
286
321
356
387
414
430
437
435
421
401
375
346
319
294
275
262
258
260
269
284
303
323
343
360
375
384
389
386
381
370
356
341
324
310
296
286
280
277
280
288
298
311
324
339
352
363
368
370
367
359
348
335
322
308
297
290
286
286
292
299
309
320
332
342
347
352
352
350
344
337
328
321
313
308
305
302
303
304
308
312
316
320
323
327
328
329
330
329
328
327
324
321
316
313
308
304
300
298
298
299
301
306
309
314
320
323
325
326
325
320
316
311
304
298
294
291
290
293
294
298
303
307
311
313
314
313
311
309
304
302
298
295
294
293
294
294
295
294
294
294
293
292
290
291
290
291
292
293
294
296
298
298
297
293
291
288
285
283
280
279
281
282
284
287
292
293
295
295
296
294
292
288
286
282
281
282
283
285
288
291
294
297
298
299
301
300
300
298
299
299
301
302
306
309
311
314
317
318
318
320
318
320
320
320
322
324
327
330
334
335
338
339
338
337
336
335
334
334
333
334
338
340
343
346
349
351
351
350
350
347
345
341
340
339
340
339
342
343
346
348
349
350
350
349
347
345
343
341
341
341
343
344
345
347
348
350
349
347
344
341
339
335
335
334
334
336
339
340
343
345
345
345
344
342
338
336
334
333
331
331
331
334
335
338
339
341
341
340
338
336
333
332
331
330
330
332
333
333
335
336
336
334
331
330
328
325
325
325
326
328
330
333
335
338
338
337
336
334
330
327
324
322
321
322
323
326
329
333
335
336
338
336
335
332
329
326
324
323
323
324
326
327
330
332
334
334
334
333
331
330
329
327
327
328
328
330
332
333
334
334
334
332
330
328
327
325
325
327
328
331
333
334
338
338
338
336
335
333
330
327
326
326
326
328
329
332
334
337
339
339
337
336
334
331
328
327
326
327
328
330
331
334
336
336
338
338
336
334
332
330
330
331
331
332
333
335
336
338
338
337
338
336
332
332
330
330
331
331
334
337
339
341
343
344
342
342
339
336
334
333
333
333
335
336
339
340
343
344
343
342
342
338
337
333
333
331
332
333
334
336
334
334
333
330
329
325
322
320
318
318
320
321
325
328
333
335
336
335
333
328
323
317
312
307
303
303
304
306
309
314
320
323
326
329
329
328
326
326
324
320
318
318
319
320
323
324
326
327
328
329
328
329
329
329
331
333
336
339
341
344
345
346
344
342
340
337
335
332
330
330
331
332
335
337
342
343
346
346
347
346
344
342
340
340
339
339
341
343
343
345
347
346
345
343
342
340
338
338
339
339
341
343
345
347
349
349
348
347
344
342
339
337
335
336
336
339
341
344
349
350
352
354
354
356
357
363
370
380
391
403
413
423
428
428
421
407
384
354
317
274
229
179
132
86
46
10
0
0
0
0
0
0
0
0
0
0
0
0
0
0
0
0
3
36
88
159
248
342
441
535
612
660
662
661
656
631
591
539
482
427
377
336
309
294
295
311
337
371
408
444
478
502
516
518
507
486
457
422
385
350
320
297
285
282
289
304
326
353
381
405
426
441
448
446
438
424
406
385
363
344
329
318
311
310
315
323
336
349
364
378
390
400
405
406
404
397
387
376
363
349
336
325
319
316
317
323
331
342
355
367
377
387
392
392
388
382
371
360
348
337
328
323
321
323
327
334
342
352
360
366
370
372
371
368
363
359
352
347
342
338
335
334
333
334
336
338
339
342
345
347
349
352
354
356
356
355
353
351
347
341
336
330
328
323
322
324
325
330
334
338
343
347
348
349
348
343
339
334
329
325
322
321
320
322
325
327
329
332
334
334
332
331
329
326
324
322
320
320
319
319
320
318
318
317
315
314
312
310
310
310
311
313
315
315
318
317
317
314
314
310
306
302
299
298
297
297
298
301
305
307
309
311
310
309
306
303
298
295
293
292
290
292
294
297
301
305
307
308
308
307
306
305
304
303
305
305
308
312
314
317
320
322
324
325
324
326
325
325
326
328
332
335
338
342
346
349
350
350
350
349
349
348
346
346
348
349
352
354
357
360
362
362
363
361
361
360
357
358
357
358
358
360
363
365
366
367
367
365
364
362
359
357
355
356
357
358
360
362
365
367
368
367
366
365
362
360
357
355
354
356
356
359
361
364
365
366
366
365
363
361
360
356
355
355
357
358
360
363
363
364
364
362
361
359
356
355
352
352
353
354
356
360
362
364
365
365
364
361
358
355
353
350
350
350
351
353
356
359
361
362
363
362
360
358
356
354
351
350
349
351
352
353
355
357
357
358
357
356
355
352
350
350
351
352
354
356
358
359
361
360
359
356
353
350
348
346
346
346
348
351
353
355
358
359
360
360
358
355
352
350
348
346
347
348
349
351
353
354
355
355
353
352
350
349
346
346
345
346
348
350
353
355
357
358
357
356
353
351
348
345
344
345
345
347
349
352
355
357
357
358
356
355
353
350
348
347
345
347
348
351
352
354
355
355
355
355
353
350
348
347
345
346
347
349
351
353
353
354
354
352
351
348
345
344
341
342
343
344
346
349
351
352
352
352
351
348
346
344
341
341
342
342
343
345
348
350
352
352
351
351
349
345
344
342
341
341
342
344
346
348
349
350
350
350
349
347
345
342
341
341
342
342
345
347
348
350
351
350
349
347
345
343
341
340
339
340
341
343
346
348
349
351
350
349
347
344
341
338
336
336
336
336
337
339
339
339
339
339
336
335
334
332
331
333
334
337
339
340
343
342
342
338
334
328
322
315
311
308
307
308
312
317
324
330
335
340
343
342
342
338
336
332
328
323
323
322
324
325
328
330
334
335
337
337
338
339
338
339
339
340
342
343
344
345
344
344
344
342
340
339
337
336
338
338
340
343
346
350
350
352
351
349
348
345
341
338
336
336
335
337
340
342
345
348
350
352
350
350
347
345
341
340
337
338
338
339
341
343
346
346
347
347
345
342
341
339
338
337
337
339
341
343
345
346
347
349
351
353
359
367
376
388
400
410
418
423
423
416
400
377
345
307
265
217
168
119
72
30
0
0
0
0
0
0
0
0
0
0
0
0
0
0
0
0
0
0
20
65
134
220
315
416
512
595
656
662
662
657
634
594
541
483
426
371
327
295
279
276
288
313
345
384
423
459
487
505
510
506
488
460
425
387
350
316
290
275
268
274
288
309
337
365
394
418
435
444
446
439
425
406
383
362
340
322
310
302
302
305
314
327
341
358
372
387
396
403
406
404
398
389
378
364
351
338
328
319
315
314
318
326
338
351
364
375
385
392
394
393
387
378
367
354
343
333
327
324
323
326
334
341
350
359
366
371
374
373
370
367
361
356
350
344
340
337
336
334
335
336
339
339
342
345
347
350
352
353
354
354
354
354
352
348
343
339
335
331
328
326
328
329
332
337
341
346
349
351
351
350
348
343
337
332
328
324
321
321
322
324
327
331
333
334
336
336
334
332
329
326
324
322
322
321
321
322
321
321
321
320
317
317
315
313
313
312
312
314
316
316
317
318
317
315
312
308
306
303
298
297
297
297
300
302
304
307
308
309
308
306
304
300
298
294
294
292
293
295
297
299
302
304
305
304
303
302
302
301
299
299
300
302
304
310
312
316
318
321
322
322
320
320
320
320
320
323
324
328
333
337
340
342
344
346
346
344
344
342
343
341
344
346
349
352
355
359
360
360
359
358
358
355
353
353
352
352
354
355
357
361
361
363
363
362
362
359
358
357
355
355
357
358
359
360
361
363
362
362
359
357
354
353
351
350
350
352
354
356
360
361
363
361
360
359
357
354
352
350
351
350
351
353
356
358
359
361
360
360
357
355
353
351
350
350
352
353
356
357
360
361
362
361
359
357
355
353
350
348
348
348
351
352
354
356
357
359
358
357
354
353
352
350
348
350
351
351
353
355
357
358
357
356
354
353
350
348
347
347
347
349
350
353
355
356
357
357
357
354
351
350
349
347
347
346
349
351
352
355
355
355
354
352
350
346
344
342
340
340
340
343
345
348
351
353
355
355
352
352
349
347
343
342
340
340
342
344
346
348
351
352
351
350
349
346
345
343
343
345
345
346
349
350
351
351
351
350
348
347
343
342
341
340
341
343
345
348
351
351
352
352
350
350
346
344
342
340
340
340
342
344
346
349
351
351
351
350
348
346
344
342
340
340
341
341
342
344
346
348
348
348
346
344
342
340
338
339
337
339
340
342
344
346
345
345
345
343
341
340
338
337
337
337
338
341
343
345
346
346
346
344
342
339
338
335
334
334
335
337
339
342
344
346
347
347
345
343
341
337
336
333
332
333
334
336
338
341
342
344
345
344
342
340
338
337
336
336
337
337
339
341
342
343
343
342
341
339
336
335
335
334
335
337
338
341
343
344
345
346
344
342
339
337
334
332
331
333
333
335
337
339
341
341
340
340
337
335
331
330
328
326
327
329
330
333
335
335
336
333
330
327
323
318
313
311
309
309
310
312
316
319
322
325
327
328
328
327
325
325
324
325
324
325
326
327
327
328
327
326
326
325
324
326
327
330
334
337
341
344
347
349
349
348
346
343
337
334
330
328
328
329
332
336
339
343
346
349
349
349
349
346
343
341
340
338
337
337
338
340
340
341
342
341
340
339
339
338
336
337
337
340
341
343
344
345
346
346
344
341
339
335
334
332
334
334
335
338
341
345
346
348
347
346
344
343
345
347
352
362
374
388
402
413
423
427
425
414
396
368
334
296
251
205
157
110
66
27
0
0
0
0
0
0
0
0
0
0
0
0
0
0
0
0
0
0
21
67
134
220
317
418
515
599
659
662
661
657
633
592
538
478
420
365
321
290
275
275
290
318
353
393
433
466
492
507
510
499
479
449
415
378
342
312
290
277
273
280
295
317
340
367
392
413
427
435
435
428
417
400
382
361
341
325
311
303
300
303
310
323
336
352
367
382
394
402
406
406
399
388
375
360
343
329
316
309
305
307
313
324
337
351
365
376
384
389
389
384
377
365
353
342
332
325
320
319
320
325
332
340
348
354
359
364
364
364
362
358
354
348
344
339
336
332
329
327
326
328
328
330
335
339
345
350
355
356
358
357
354
350
344
337
330
324
320
317
317
319
322
328
334
340
344
347
348
347
344
339
335
328
324
319
316
315
315
316
319
323
325
328
331
331
330
330
327
325
323
323
322
321
320
319
316
316
313
311
309
308
308
307
307
310
311
314
316
318
318
317
316
312
309
304
301
297
293
292
294
296
300
303
307
310
312
312
311
309
306
302
298
294
293
292
292
294
295
298
300
302
302
302
302
302
300
299
299
299
301
301
304
307
309
311
312
313
314
314
314
313
314
314
317
320
324
327
332
335
338
341
342
343
342
340
340
339
340
340
342
345
347
351
353
356
357
357
357
357
355
355
354
353
354
356
358
360
362
364
365
364
362
362
358
358
356
356
357
360
362
365
369
370
373
373
372
370
368
365
361
358
356
356
356
358
361
363
365
368
370
369
369
367
366
364
361
360
359
359
360
362
363
364
365
366
367
366
365
364
363
361
362
361
363
363
365
367
368
368
368
365
364
362
360
358
358
359
359
362
363
366
368
368
369
368
365
362
359
355
351
350
350
352
354
356
360
362
365
367
367
366
364
361
359
356
354
353
354
353
356
357
360
361
362
363
363
362
360
360
359
358
358
358
359
359
361
361
361
359
357
356
355
352
351
352
353
355
358
360
364
366
369
369
367
366
362
358
356
352
351
349
350
351
354
357
360
363
364
366
366
364
362
359
356
355
353
352
354
354
356
357
359
358
359
358
357
356
355
353
355
355
357
360
361
363
364
364
365
363
360
359
355
353
351
353
353
356
359
362
366
368
369
370
367
366
363
359
354
353
351
350
352
353
356
357
359
361
362
363
362
361
361
358
357
356
356
356
356
357
357
358
357
357
356
356
353
352
352
354
356
357
362
365
367
369
370
371
369
367
364
361
358
354
352
351
353
354
358
361
362
365
367
368
368
366
364
362
359
357
357
358
359
361
362
364
366
366
366
365
363
362
360
359
359
359
360
362
364
365
366
366
364
362
361
359
358
357
357
358
361
362
364
366
366
366
364
362
357
354
350
347
345
345
346
349
351
357
360
363
366
364
363
357
352
345
339
333
328
326
325
326
330
335
339
344
349
351
354
355
355
355
353
352
351
350
347
347
346
345
345
345
345
344
346
347
349
352
356
359
362
366
368
369
368
365
361
356
353
347
345
342
342
343
347
352
356
362
366
369
371
371
368
367
363
360
356
354
354
354
354
356
358
360
360
362
361
361
359
358
356
356
355
358
358
360
361
363
363
363
360
359
355
352
349
347
346
347
348
350
354
356
360
362
362
361
360
358
354
353
354
359
366
375
388
401
412
421
426
426
418
403
381
352
318
278
237
194
151
108
69
34
1
0
0
0
0
0
0
0
0
0
0
0
0
0
0
0
0
21
63
128
206
300
396
491
574
639
661
661
657
638
599
547
486
425
371
327
296
283
287
306
338
379
422
463
498
523
534
531
516
490
456
417
376
340
309
286
277
276
288
307
331
361
389
416
436
450
456
455
445
430
409
386
363
342
323
310
302
300
305
315
330
346
365
384
399
411
419
421
418
408
395
378
360
342
327
315
308
306
310
319
332
346
360
374
385
393
395
393
388
378
367
353
342
331
324
320
319
322
326
333
341
349
356
360
363
365
365
363
360
356
350
347
340
335
330
327
324
322
321
323
327
330
334
341
346
351
355
356
355
353
348
341
333
326
320
314
312
311
311
316
320
326
332
336
340
342
342
339
334
330
324
319
315
312
310
309
311
311
313
315
316
317
317
317
318
318
318
317
316
315
315
313
312
308
306
303
299
297
295
294
294
296
297
300
304
307
308
309
307
305
301
296
293
288
283
280
279
281
282
285
288
290
294
295
295
294
292
290
285
282
280
279
279
280
281
283
285
286
288
287
286
286
285
284
284
284
285
287
288
289
292
295
297
297
297
298
298
298
298
299
301
303
306
310
315
318
321
324
325
324
324
323
321
321
320
320
322
327
331
335
339
341
343
345
344
342
340
338
336
335
335
335
337
340
343
346
348
348
350
348
347
346
344
343
340
340
342
342
344
345
347
347
347
347
345
343
341
339
339
338
339
341
342
345
347
350
349
349
347
345
343
338
335
334
334
335
336
337
340
342
344
345
345
344
342
339
337
335
334
334
335
336
338
341
343
345
346
346
344
343
341
338
336
335
334
335
335
335
337
338
338
339
338
338
335
333
332
331
331
333
333
336
338
340
342
341
341
340
337
334
331
327
326
325
327
328
332
335
338
340
341
341
340
338
335
331
328
326
326
326
327
329
331
334
336
339
340
342
339
338
337
334
334
333
331
332
332
333
335
336
335
334
332
331
329
327
325
324
326
327
331
333
335
337
339
340
340
338
337
333
331
329
328
328
330
330
334
335
337
338
339
339
337
336
333
333
330
329
331
332
332
335
336
338
338
339
338
336
333
331
328
327
327
329
331
333
336
339
342
343
343
342
340
336
334
330
329
327
327
329
331
333
337
338
340
340
339
336
333
331
329
326
327
328
327
330
332
333
334
335
335
334
332
330
328
327
328
328
330
332
334
336
337
337
336
335
332
330
328
326
325
325
326
327
331
333
337
339
338
338
338
335
332
329
326
323
322
324
324
327
329
330
332
332
329
327
325
322
318
316
315
314
315
318
321
325
327
329
328
327
325
320
316
310
305
303
299
300
302
304
307
312
315
318
320
320
321
320
318
318
317
318
318
318
320
321
321
320
320
319
317
317
316
317
318
321
324
328
332
335
337
338
337
335
333
330
325
322
319
320
320
322
326
330
335
338
341
343
342
341
338
336
331
329
326
326
327
328
330
331
334
337
337
336
335
334
330
329
328
327
328
328
331
332
334
336
336
337
336
334
332
329
328
326
326
327
328
329
331
334
334
334
335
334
333
331
331
334
340
348
360
372
386
398
407
412
413
406
392
369
340
306
268
225
183
139
98
58
22
0
0
0
0
0
0
0
0
0
0
0
0
0
0
0
0
0
0
26
75
144
231
325
424
518
598
654
661
661
652
619
571
512
447
385
332
292
265
259
269
294
329
371
414
455
488
509
518
514
496
469
433
394
354
320
290
272
264
265
276
294
319
347
374
398
419
433
439
438
430
415
396
374
352
332
314
301
293
292
295
306
319
336
356
373
388
399
405
406
402
393
378
362
344
327
312
302
296
296
301
311
323
336
351
365
374
380
382
379
373
363
352
342
331
322
317
312
313
313
318
322
329
336
342
346
351
355
357
357
357
355
351
346
339
333
327
322
317
315
314
314
317
322
328
336
341
347
349
351
351
347
342
336
328
322
315
311
308
308
311
314
318
322
326
329
331
332
331
328
326
322
320
316
315
314
314
313
313
315
315
315
314
313
313
313
313
312
313
313
314
314
314
313
312
309
304
302
298
295
292
292
293
294
297
300
302
304
306
306
304
301
297
294
289
286
283
283
282
284
285
288
291
293
293
294
293
291
289
286
284
282
281
280
282
282
284
287
287
288
288
288
286
285
283
284
285
285
288
290
292
296
299
300
301
302
301
299
299
299
300
301
304
307
310
316
319
323
326
325
327
324
322
321
320
318
320
321
323
326
331
334
337
340
340
340
338
336
334
333
331
332
332
335
336
340
342
343
343
344
344
343
340
338
338
336
336
336
337
339
340
343
343
343
343
342
340
338
336
335
335
335
336
337
338
340
341
341
340
339
336
335
333
332
330
331
331
335
337
339
340
342
342
340
339
336
334
331
330
329
329
330
332
334
337
341
343
343
342
341
340
336
334
330
329
328
328
329
331
332
335
336
337
337
335
333
331
330
329
328
328
330
332
333
336
337
338
338
335
334
331
328
326
324
324
325
325
328
330
332
334
336
336
336
333
331
329
327
325
325
326
328
329
331
332
334
336
334
334
332
331
329
328
327
328
328
329
331
334
335
336
336
334
332
330
328
326
325
324
326
328
330
332
334
336
337
337
337
336
335
332
330
328
329
329
330
333
334
337
337
336
336
334
333
330
328
327
326
326
329
330
333
337
339
341
343
342
342
339
338
335
334
333
332
332
335
337
338
340
342
343
341
342
340
338
335
335
333
334
334
337
339
342
342
343
344
344
342
340
337
336
334
334
334
334
337
340
341
343
344
345
345
343
341
339
337
334
333
332
333
335
336
339
341
341
343
342
341
340
338
338
336
336
336
337
339
340
340
342
341
340
339
338
336
334
334
334
336
337
339
341
343
345
346
346
345
344
342
338
336
335
334
333
333
334
336
336
337
336
335
334
333
331
328
328
326
328
329
331
332
334
335
336
335
330
327
322
317
311
309
305
305
307
311
316
322
327
332
335
336
337
335
331
327
324
321
319
319
319
321
322
326
328
329
332
334
334
335
334
335
336
336
338
339
341
340
341
340
340
339
337
334
333
332
331
332
333
337
339
342
345
348
349
348
347
346
342
339
336
335
333
334
335
337
340
342
343
345
346
346
344
343
340
339
337
337
336
337
338
340
342
343
343
343
340
340
338
336
335
334
335
336
337
339
342
342
345
348
351
355
363
371
381
391
401
409
415
417
411
401
380
354
320
281
237
190
142
95
53
14
0
0
0
0
0
0
0
0
0
0
0
0
0
0
0
0
0
16
58
120
197
289
386
479
564
630
662
662
658
639
601
551
492
434
380
333
301
283
281
292
316
349
386
425
461
489
508
516
510
493
466
433
396
358
324
296
277
270
272
285
308
334
364
395
420
440
452
455
448
436
415
392
366
343
324
310
301
300
304
315
329
347
363
379
393
403
409
410
406
400
389
376
365
352
340
330
323
320
320
322
329
339
351
362
373
383
390
394
393
390
382
373
361
351
338
329
324
321
323
326
334
344
354
363
371
377
379
378
374
370
362
355
348
341
337
334
333
334
336
339
341
344
347
350
352
354
353
354
352
351
350
347
344
340
338
335
330
328
327
325
326
330
334
336
341
345
347
349
347
345
341
335
330
324
319
315
314
313
316
320
324
328
331
334
336
336
334
331
327
322
319
315
312
311
311
311
313
313
314
314
314
314
312
310
309
308
307
309
308
310
311
310
310
308
306
305
301
299
298
297
296
298
300
303
305
308
309
310
309
306
303
301
297
293
291
289
291
292
294
298
303
306
308
310
311
312
310
309
305
305
304
304
304
307
310
312
316
318
321
324
324
324
326
326
327
330
331
334
336
340
343
343
344
344
343
344
342
342
343
344
345
348
352
354
358
361
362
362
362
360
358
356
353
352
351
350
354
355
357
360
362
365
364
363
362
360
356
354
353
352
352
353
355
358
360
362
363
364
362
360
358
355
353
351
351
352
352
355
356
358
359
360
358
358
356
352
350
348
347
348
348
351
353
357
360
361
362
361
360
358
356
353
351
350
349
351
352
354
357
360
361
361
361
359
358
355
354
352
351
350
350
352
352
354
355
357
356
356
353
352
350
348
347
348
349
350
353
355
359
360
360
360
358
357
354
351
348
346
346
346
348
351
353
355
357
359
359
357
356
353
351
350
350
349
349
351
353
355
356
357
357
358
356
354
351
349
349
348
348
348
350
352
356
356
358
358
357
357
355
354
350
350
348
349
350
351
354
355
356
356
356
355
354
352
350
348
349
349
350
352
355
358
358
360
360
360
358
356
353
349
348
346
348
348
349
353
355
358
359
360
360
359
357
353
351
349
348
348
349
350
353
354
357
357
359
359
357
355
351
350
347
346
346
348
348
350
352
353
353
354
352
349
346
343
339
337
336
334
333
334
337
339
341
343
344
345
343
342
341
338
333
331
328
327
326
325
323
322
321
320
320
320
321
321
323
324
327
330
334
336
338
338
337
336
334
330
327
324
322
321
322
323
326
330
336
340
344
348
349
350
350
348
348
344
342
341
341
340
342
345
347
349
350
351
351
349
350
348
347
345
345
347
349
351
352
355
356
357
355
353
350
346
344
341
339
338
337
338
341
344
348
351
355
359
362
361
360
358
353
347
341
337
334
330
328
329
329
330
332
335
338
341
344
347
352
358
364
373
382
391
401
408
414
417
418
412
403
387
365
340
310
276
239
199
158
116
75
36
1
0
0
0
0
0
0
0
0
0
0
0
0
0
0
0
0
21
67
133
216
312
411
507
590
653
662
662
656
631
587
532
471
411
357
315
286
273
278
296
326
361
401
437
470
492
502
502
490
468
439
405
371
338
310
290
277
275
281
292
310
333
357
379
399
414
425
428
423
416
400
382
362
341
323
306
296
290
290
296
307
322
341
359
375
390
399
400
398
390
377
362
344
328
315
306
302
300
305
313
323
336
348
357
366
370
372
370
365
359
352
344
338
333
330
326
324
324
325
326
328
330
335
339
343
348
352
354
356
354
352
348
343
335
330
323
318
315
316
317
321
328
335
341
347
351
354
353
351
346
340
334
326
321
318
316
318
318
323
328
332
335
338
339
339
338
334
331
329
326
324
322
322
321
321
321
320
320
318
317
315
314
314
313
315
317
318
321
321
322
321
318
316
312
307
303
299
297
296
298
300
304
307
311
313
314
313
311
309
304
298
295
291
289
288
289
290
292
295
298
299
301
300
299
296
295
293
291
291
291
290
291
293
294
293
293
292
291
288
287
284
285
285
286
289
294
298
302
305
308
310
311
310
308
307
305
306
306
307
308
312
316
319
322
325
327
328
329
328
326
325
325
328
329
332
335
338
343
345
348
348
347
344
341
340
337
336
336
338
340
343
347
351
353
355
355
353
351
349
346
344
343
342
344
344
348
349
352
352
353
352
349
347
344
342
341
341
341
344
347
351
354
356
356
356
353
350
346
341
338
336
333
334
337
339
342
346
349
352
352
351
350
347
345
341
339
338
338
339
341
345
347
348
350
350
349
348
347
344
342
341
341
341
343
344
346
347
349
347
347
344
340
338
335
335
334
335
337
338
342
345
348
349
350
349
345
343
339
335
332
329
330
330
333
336
340
343
345
347
346
344
341
338
336
332
332
332
332
334
337
339
343
343
345
343
342
339
338
335
333
333
333
335
337
340
343
344
345
346
345
342
340
336
334
332
333
334
336
337
340
343
344
345
345
344
341
338
335
334
334
335
335
339
342
343
345
346
346
345
343
341
339
337
335
335
337
338
342
344
348
349
349
349
346
342
338
332
329
324
323
322
324
328
332
337
341
345
346
346
343
338
332
325
320
316
313
310
309
310
312
316
318
321
323
325
326
327
326
328
328
330
329
331
331
330
329
327
325
322
321
320
319
321
325
330
336
342
348
353
356
358
358
355
350
344
339
334
330
328
329
331
336
339
345
350
354
357
358
358
356
354
351
348
346
345
344
345
345
346
346
347
346
346
346
346
344
344
345
347
349
350
351
353
353
354
352
350
347
343
341
337
336
336
336
339
343
347
350
353
355
355
353
351
349
348
347
351
359
369
381
396
411
423
431
434
431
418
397
369
332
292
247
201
153
107
66
26
0
0
0
0
0
0
0
0
0
0
0
0
0
0
0
0
0
9
43
100
176
268
365
463
555
629
661
663
661
650
619
572
514
455
398
349
312
291
285
293
317
349
386
426
461
489
507
515
507
489
462
428
391
355
323
299
284
277
283
295
314
336
362
387
407
424
433
437
432
423
407
389
370
351
333
319
309
304
304
308
318
331
346
363
377
392
401
407
409
404
396
382
367
350
334
320
310
305
305
309
319
330
345
358
371
380
387
388
385
379
370
359
348
338
330
323
322
321
323
328
333
339
345
350
354
357
359
359
360
358
355
352
348
345
339
335
332
328
325
325
325
326
330
334
340
346
351
353
356
354
352
347
342
334
327
322
317
315
317
319
323
327
333
338
342
344
344
343
340
335
330
326
322
320
318
318
319
321
321
323
325
324
324
323
321
320
318
319
318
318
319
319
318
318
316
316
313
311
308
304
302
302
303
305
308
310
312
313
314
313
311
308
305
301
298
296
294
295
296
300
302
305
307
309
309
307
305
303
298
295
293
290
291
291
293
294
297
300
301
302
303
303
302
301
301
301
303
304
307
310
313
315
318
321
321
321
320
320
318
318
320
321
324
328
331
335
339
342
344
344
344
343
341
339
338
337
340
341
343
347
351
355
357
359
359
358
357
354
351
350
348
349
349
352
354
356
358
360
360
360
357
354
352
349
349
347
348
350
352
355
357
359
360
359
359
356
352
350
348
346
346
346
348
349
353
354
357
358
357
356
355
353
350
347
346
347
347
348
350
352
353
356
355
355
354
351
350
347
346
346
346
347
350
352
353
355
354
355
353
351
350
346
345
344
343
345
346
349
352
354
356
358
357
355
354
350
347
344
342
341
342
343
345
348
351
352
352
353
352
350
348
346
342
342
341
342
344
345
347
348
350
351
350
349
347
344
342
340
340
340
342
343
346
347
348
350
350
348
348
346
343
341
341
340
340
343
345
348
350
352
354
353
352
349
345
342
339
338
338
338
340
342
345
348
351
352
352
353
351
349
346
344
343
342
342
343
344
347
349
350
350
350
349
348
346
344
344
342
343
345
346
348
349
350
351
351
349
347
345
342
339
337
336
337
338
341
344
346
350
351
351
350
347
343
338
333
331
326
326
326
329
331
336
339
342
343
344
342
340
336
332
327
322
319
316
314
314
316
315
318
320
321
322
324
325
328
328
330
332
335
336
336
336
334
332
328
326
324
322
320
322
324
329
333
339
345
351
356
358
358
356
354
350
345
340
336
334
332
333
336
340
344
349
352
355
357
358
358
357
353
351
347
346
344
343
342
342
342
342
342
342
342
343
343
345
347
349
351
354
356
356
357
355
353
349
344
341
336
334
332
331
334
337
341
346
350
353
356
357
355
354
350
347
343
342
345
351
361
375
390
404
418
428
433
431
423
406
382
352
314
274
230
186
143
99
59
23
0
0
0
0
0
0
0
0
0
0
0
0
0
0
0
0
3
34
86
156
244
339
439
532
611
660
662
661
655
631
590
536
478
422
371
332
308
300
307
327
356
392
430
464
493
510
519
513
499
473
444
411
376
345
321
304
297
297
307
321
342
366
388
409
426
437
443
443
434
422
406
389
370
351
337
324
317
317
320
328
341
357
373
389
403
415
420
421
417
407
394
379
364
348
334
325
320
321
325
334
345
358
370
382
390
394
396
393
389
381
372
362
355
348
344
341
341
343
346
350
354
359
362
366
369
371
372
372
372
370
367
364
359
353
348
343
337
334
332
333
334
339
344
350
357
362
366
367
367
364
360
354
347
341
335
332
332
331
335
338
343
348
350
353
355
355
353
350
347
345
343
340
338
338
337
337
337
336
337
335
336
335
336
336
337
339
340
342
343
344
344
343
340
336
332
327
321
318
316
315
315
319
323
326
330
333
335
336
335
333
329
324
320
316
312
311
311
311
313
315
317
318
320
320
317
317
314
314
311
311
310
311
311
312
313
314
314
316
314
313
311
311
310
311
313
318
320
325
329
333
336
338
337
337
335
333
331
329
329
330
333
336
340
345
349
352
356
357
357
356
355
353
352
353
353
354
356
359
362
365
368
370
372
373
372
372
371
371
372
372
372
374
375
376
376
375
374
374
372
370
368
369
368
370
372
377
379
383
385
387
387
386
383
380
375
372
368
367
367
366
369
371
375
379
380
383
384
384
383
381
377
375
374
373
373
374
374
376
377
378
377
377
377
375
374
372
373
374
375
377
381
383
386
387
388
387
385
380
377
371
368
365
364
363
364
367
368
370
374
376
376
376
377
374
373
371
370
368
369
370
372
373
374
375
375
374
373
370
368
366
367
367
367
369
372
375
377
378
378
378
375
373
369
367
363
362
362
362
362
364
367
371
373
375
377
378
377
376
374
372
369
367
367
368
367
367
368
369
369
370
371
371
370
370
369
370
371
372
375
377
378
381
381
380
378
375
369
366
362
360
362
362
366
371
374
378
383
386
385
385
381
378
373
369
365
362
361
362
363
366
368
371
371
373
371
369
365
362
359
355
354
355
355
358
359
362
364
364
365
363
360
357
353
347
342
339
338
338
339
344
347
351
353
355
356
356
356
356
354
353
351
350
350
351
351
352
353
354
353
353
353
352
351
352
356
356
360
363
366
369
372
373
374
374
371
368
364
361
359
359
360
362
365
367
369
371
374
373
374
373
370
369
367
365
365
364
366
366
368
368
370
371
371
369
367
365
364
363
362
362
363
364
365
367
369
371
371
370
370
368
367
364
362
361
362
361
362
363
365
366
366
367
365
364
363
363
366
372
378
389
398
410
419
426
429
427
420
404
381
352
317
280
240
199
160
121
85
52
19
0
0
0
0
0
0
0
0
0
0
0
0
0
0
0
14
52
106
177
264
355
446
531
602
652
661
660
649
618
573
519
461
404
356
319
297
294
306
333
370
415
461
502
535
554
560
552
530
496
457
412
367
329
300
280
273
278
295
320
349
383
414
441
461
471
473
466
452
432
408
382
357
336
319
308
304
305
313
326
344
361
380
397
412
423
429
429
423
413
398
380
361
343
328
317
310
309
313
323
337
352
367
382
394
402
406
404
398
389
376
362
350
338
330
324
323
325
332
339
349
357
364
371
377
378
379
376
372
368
364
358
353
348
345
342
339
339
339
339
341
345
349
353
357
361
364
365
364
361
357
352
347
339
334
329
326
325
325
329
334
339
344
351
354
356
357
354
350
347
340
335
331
326
323
324
323
326
328
330
333
335
337
337
337
337
336
334
332
329
327
325
324
321
318
315
314
312
313
310
311
313
315
319
321
323
324
325
324
321
318
315
310
305
302
300
297
298
299
302
305
307
310
311
312
311
309
307
304
302
299
298
297
298
299
301
304
305
307
307
306
304
302
302
301
301
302
305
307
311
313
317
320
322
322
322
322
321
320
319
319
320
322
326
330
334
338
342
345
345
346
346
345
345
346
346
346
348
349
351
354
356
358
358
357
356
354
352
351
350
351
351
353
354
356
358
361
361
361
360
358
356
352
350
349
350
350
352
354
355
357
358
358
357
356
352
348
345
343
341
341
342
345
347
352
354
359
359
360
360
359
355
352
350
348
346
345
346
347
347
348
348
347
348
346
345
344
344
343
344
345
347
347
348
349
349
349
349
346
344
341
339
338
338
337
339
340
343
347
349
350
351
351
347
345
342
337
334
332
332
331
332
335
338
343
346
346
348
346
345
341
337
334
330
328
328
327
329
331
334
336
339
341
342
342
341
340
338
336
334
333
332
333
332
332
332
333
331
330
329
329
328
327
327
327
329
332
333
334
335
334
333
328
325
321
316
312
309
306
307
308
309
311
314
317
318
319
318
315
312
308
306
302
301
302
303
305
309
313
317
318
320
320
320
317
315
315
314
313
314
315
317
321
324
324
326
327
326
325
322
320
319
318
317
318
319
321
322
323
326
325
326
325
323
321
319
318
318
318
318
320
321
323
324
324
324
321
319
316
314
312
310
309
309
312
313
315
318
320
321
321
320
317
315
310
308
305
306
306
306
308
310
312
312
314
313
312
311
308
306
305
305
305
307
311
317
324
334
344
353
361
367
370
369
365
355
340
320
294
266
234
198
161
120
82
44
7
0
0
0
0
0
0
0
0
0
0
0
0
0
0
0
0
0
0
3
37
96
172
261
356
448
529
593
632
647
638
607
557
495
427
361
303
258
232
224
233
258
295
338
385
428
463
488
500
498
483
456
422
380
340
300
266
242
228
225
231
250
276
306
338
369
396
417
429
431
424
408
384
356
327
299
274
257
246
244
253
266
287
311
335
357
375
387
393
390
381
367
350
329
312
294
283
275
272
273
280
291
304
318
330
342
350
357
359
357
354
347
337
328
317
305
296
290
284
283
284
288
296
304
315
325
334
340
346
347
344
339
330
320
310
300
291
286
283
285
288
294
304
311
320
327
331
333
332
329
324
317
311
305
298
295
292
291
292
294
298
301
304
306
311
312
313
312
313
311
310
307
306
304
300
297
294
289
287
286
284
285
287
292
295
300
305
307
309
309
308
304
299
295
290
285
281
278
277
279
281
285
288
292
296
298
298
296
294
292
287
284
280
279
278
278
280
280
283
285
285
287
287
286
286
285
284
284
284
284
286
286
286
285
284
282
280
278
277
276
275
278
280
284
287
293
298
301
304
306
305
304
302
299
297
295
295
296
299
302
305
310
315
318
321
323
323
325
324
324
323
322
323
326
328
331
332
334
337
338
338
336
337
336
334
334
333
334
335
338
338
341
341
341
343
342
341
338
338
335
336
335
337
339
341
344
344
347
346
345
344
341
339
337
335
334
335
335
337
339
342
344
346
347
348
347
344
341
339
337
336
335
337
336
338
341
342
344
344
343
341
340
337
336
334
335
335
337
338
342
344
345
346
345
344
341
339
337
334
332
332
335
335
338
341
343
346
346
347
347
345
342
339
337
336
335
335
334
336
339
340
342
343
344
344
343
342
340
339
337
337
338
339
340
342
343
344
344
343
341
341
339
337
336
336
337
339
342
343
345
346
347
347
346
344
340
337
336
335
335
336
338
340
343
345
346
348
348
347
345
344
343
342
340
340
342
343
345
348
351
351
352
351
350
348
346
345
342
341
342
344
346
348
353
353
355
355
355
352
349
346
343
339
338
336
337
338
339
343
346
349
351
350
350
348
346
343
340
338
333
331
330
328
327
328
329
329
330
330
332
333
335
337
338
341
343
345
347
348
346
345
345
342
338
335
333
332
333
335
338
342
347
353
358
363
366
366
368
366
362
360
356
354
353
354
354
357
359
362
363
364
364
364
364
363
362
361
361
361
362
363
365
366
366
366
364
362
360
358
356
356
356
356
358
361
364
368
370
370
371
370
367
363
360
355
352
350
347
348
350
352
356
358
360
363
364
365
364
363
360
359
357
358
360
366
373
382
393
403
414
422
428
428
425
416
399
376
349
314
278
238
194
151
108
70
35
6
0
0
0
0
0
0
0
0
0
0
0
0
0
0
0
18
57
113
186
274
366
461
548
620
660
662
659
647
613
565
506
447
392
344
311
292
288
301
325
358
396
434
468
495
511
518
511
494
469
438
404
370
341
317
300
293
293
303
319
340
364
389
413
431
445
451
451
443
429
411
390
367
345
326
314
305
305
310
322
338
359
378
397
412
423
426
422
414
400
385
365
348
333
323
316
314
318
327
337
349
361
372
383
388
391
390
385
377
369
359
350
343
335
330
328
326
328
330
334
339
346
353
359
365
370
371
371
369
364
358
350
342
334
328
322
319
318
320
325
332
339
347
353
357
361
362
359
355
349
341
335
328
321
317
312
312
311
314
315
317
319
322
323
326
326
327
326
326
325
325
324
324
322
320
318
314
311
310
307
306
307
307
310
314
317
318
321
321
320
318
315
310
306
300
296
293
293
293
294
298
301
306
308
312
312
312
310
305
302
297
294
291
289
288
288
288
291
292
295
294
295
296
295
293
291
291
289
289
289
289
289
287
288
287
285
284
283
282
282
282
283
286
288
292
296
299
300
302
302
301
299
297
296
295
296
297
301
304
309
314
318
321
324
325
324
324
322
319
318
317
317
319
321
323
327
330
333
335
337
338
338
336
335
334
335
335
336
337
339
341
342
344
344
343
341
338
337
334
333
334
333
336
337
340
343
344
345
345
345
343
338
335
333
330
328
327
328
330
332
334
336
336
337
338
337
337
334
334
333
333
334
335
336
337
338
340
341
339
337
336
332
330
329
328
329
329
332
334
336
340
341
343
342
342
340
338
335
332
331
331
331
333
334
337
339
340
341
340
339
336
333
330
329
328
327
328
329
331
335
336
337
339
339
338
336
333
330
329
328
326
326
327
329
329
332
332
333
333
332
330
329
328
328
328
329
330
332
334
335
336
335
334
332
329
328
324
324
323
324
325
327
328
331
332
333
333
332
333
329
327
325
321
320
318
319
319
320
322
322
324
324
324
321
320
316
314
312
309
306
305
305
306
307
307
309
309
310
309
308
309
309
310
312
316
320
323
325
326
327
326
324
320
316
312
309
308
307
308
312
317
323
329
334
338
340
341
341
338
333
330
325
322
320
321
322
323
326
330
334
337
338
338
339
338
336
335
333
332
333
332
332
332
332
332
331
330
329
328
325
325
325
327
328
330
332
335
337
339
338
339
337
334
331
328
325
324
323
323
325
327
329
332
335
336
337
336
335
332
332
328
329
328
331
336
345
355
366
379
392
403
410
414
412
405
390
370
345
314
275
236
192
146
101
57
14
0
0
0
0
0
0
0
0
0
0
0
0
0
0
0
0
0
0
12
57
124
210
309
413
511
597
657
662
662
654
625
578
520
457
397
344
302
276
266
272
293
324
360
400
437
467
489
502
502
490
470
442
409
375
341
312
291
275
271
274
286
306
331
358
383
407
426
438
443
439
427
409
387
362
338
316
299
287
283
288
298
315
335
355
376
393
405
411
411
406
393
378
361
342
327
313
305
302
302
307
316
328
340
352
362
371
376
380
380
377
371
363
356
347
340
330
325
322
318
319
322
326
333
340
348
357
363
367
370
369
366
361
354
343
335
326
320
315
315
316
320
327
334
341
348
353
356
357
355
352
346
340
334
329
326
323
322
324
325
328
329
332
334
336
336
335
334
334
334
333
332
333
332
332
330
328
326
324
321
319
318
318
317
318
320
323
325
328
329
329
329
326
322
321
315
312
310
307
307
308
310
312
314
315
317
317
317
315
312
308
305
304
302
301
300
301
302
304
304
305
305
305
302
302
299
299
298
299
301
302
304
306
306
308
308
306
305
302
300
298
298
297
299
301
305
309
313
318
320
323
324
324
324
323
320
320
318
320
321
324
327
331
335
338
340
341
343
343
342
342
342
344
345
347
348
350
352
353
355
355
353
352
351
348
348
348
349
351
354
356
359
362
363
363
362
360
358
355
352
350
349
348
350
351
353
356
359
360
361
362
359
357
354
352
350
350
349
351
352
353
354
357
357
358
357
354
352
350
347
346
345
347
347
350
352
354
357
358
358
357
356
354
350
348
346
347
347
349
351
352
355
356
357
357
356
355
353
351
348
347
347
346
347
349
351
352
354
354
353
352
351
349
348
345
345
346
346
348
351
352
354
356
355
354
354
350
348
346
344
343
343
345
346
348
349
351
352
353
352
350
348
347
344
343
343
344
346
347
350
352
354
355
355
352
351
348
344
343
341
340
341
343
346
348
351
353
354
355
354
354
350
348
345
344
343
344
344
347
348
349
351
351
353
352
349
348
348
345
345
345
345
347
348
349
350
351
350
351
348
346
346
345
343
343
343
343
343
345
346
346
345
344
342
339
338
336
334
333
333
335
336
337
337
337
336
333
331
328
323
320
316
315
315
316
320
324
329
333
337
339
341
342
339
337
333
328
325
322
321
321
323
327
331
337
342
344
348
350
350
350
351
349
349
349
348
348
349
350
348
349
348
347
346
345
345
343
344
345
348
350
353
356
358
359
358
357
353
349
346
342
338
338
338
339
341
344
349
352
355
358
357
357
355
351
348
345
343
341
340
340
342
344
346
347
348
349
350
348
346
345
344
343
343
343
344
347
348
349
351
353
355
360
367
375
385
397
410
420
429
433
430
422
403
378
346
306
261
214
164
114
68
30
0
0
0
0
0
0
0
0
0
0
0
0
0
0
0
0
0
6
40
97
172
262
361
459
550
625
662
663
660
650
621
576
521
463
407
357
319
293
282
286
303
331
366
403
440
472
497
509
511
500
480
449
414
377
341
311
288
276
273
283
298
321
349
377
403
424
440
447
446
437
420
401
378
355
336
318
307
303
303
310
321
335
351
366
380
391
400
405
405
402
394
385
373
359
346
336
327
320
316
318
322
329
340
352
364
377
385
390
392
391
385
376
366
354
343
332
325
321
321
325
332
340
350
358
367
374
378
379
377
372
365
358
351
344
339
334
330
330
331
333
336
339
342
347
349
352
356
358
358
358
357
355
350
347
341
337
332
329
325
324
324
326
330
335
339
344
348
349
351
349
347
342
337
332
325
321
320
318
319
321
324
327
330
333
334
334
334
332
330
326
322
321
317
316
315
315
315
316
314
315
315
315
314
312
313
312
312
311
312
314
315
315
314
311
310
306
303
300
298
296
296
298
299
302
306
310
312
313
313
311
309
305
303
298
296
294
293
294
297
299
304
307
309
312
314
313
312
312
310
310
309
311
311
313
317
321
324
327
328
329
331
331
330
331
332
333
336
337
339
342
344
345
345
345
345
344
342
341
341
342
343
347
350
352
355
356
358
358
357
355
353
352
349
347
346
347
349
351
353
356
358
359
360
360
358
355
352
350
346
345
346
347
347
350
352
354
355
356
355
354
353
352
350
349
349
349
351
352
353
354
355
356
354
353
350
349
346
344
344
345
346
349
352
354
357
359
361
360
358
355
353
349
347
346
345
346
346
349
351
352
354
353
353
351
349
347
344
344
343
343
344
347
348
351
351
353
351
351
349
346
344
342
340
339
340
341
343
345
347
349
349
348
348
346
342
341
339
336
336
337
338
341
342
345
346
346
346
344
343
342
339
338
338
337
338
340
342
344
345
347
347
345
344
341
340
337
336
336
336
337
339
342
344
347
347
347
346
344
341
339
337
336
336
336
337
339
343
346
347
349
349
348
347
344
342
339
338
337
336
338
340
341
342
344
346
345
344
343
342
340
339
337
337
337
339
341
341
342
342
341
339
337
333
330
326
324
324
323
326
329
332
335
340
341
341
342
338
334
327
322
317
312
309
307
306
307
309
312
315
318
320
321
323
324
324
323
323
324
324
324
324
325
324
324
324
322
321
320
320
320
322
325
329
333
338
342
346
347
348
349
347
343
341
338
336
334
333
333
336
338
342
345
348
348
350
351
348
347
345
343
343
342
341
342
343
346
346
348
347
347
346
344
342
340
339
339
341
343
344
346
349
350
350
349
347
346
342
338
336
335
334
336
338
340
343
346
348
350
349
347
345
344
340
339
339
341
348
359
370
385
399
411
422
428
428
422
409
387
357
323
283
241
195
149
104
61
23
0
0
0
0
0
0
0
0
0
0
0
0
0
0
0
0
0
14
52
112
193
287
387
486
574
645
663
662
659
643
605
554
495
436
379
331
297
278
274
287
311
343
383
422
456
483
500
506
499
482
456
424
391
356
326
303
287
280
282
291
309
329
354
379
399
418
431
436
436
428
414
398
378
356
336
319
306
298
297
302
313
328
346
365
383
398
408
414
413
406
394
380
362
345
328
318
310
308
311
316
327
338
352
363
373
379
382
381
378
372
364
355
348
340
335
331
330
329
330
334
337
340
345
349
354
358
360
362
363
360
358
354
349
343
337
333
327
325
323
323
326
331
337
343
349
355
358
359
358
355
349
343
336
330
325
321
321
321
323
328
332
337
342
344
346
345
343
341
338
335
332
329
327
326
326
326
326
325
326
326
325
324
323
324
325
325
326
326
328
328
328
326
324
320
316
313
310
305
305
305
305
307
310
313
315
318
318
318
315
311
306
302
298
294
293
293
294
295
297
300
303
305
307
306
305
304
301
300
299
297
296
296
298
299
301
302
304
305
304
302
303
301
301
301
303
304
307
310
311
314
315
316
317
315
315
314
313
314
314
317
320
325
329
332
336
340
341
340
340
339
337
336
335
335
336
339
340
344
345
347
350
351
350
350
349
347
347
345
346
347
348
351
353
356
356
357
358
355
354
350
347
346
345
344
345
347
349
352
355
358
359
358
357
356
353
351
348
346
345
346
346
347
349
350
353
352
354
352
352
350
349
349
347
348
350
352
352
353
355
356
355
353
351
350
347
345
343
343
344
345
348
351
354
357
357
357
356
354
350
347
346
344
342
342
342
345
347
348
350
350
351
350
349
347
345
342
341
341
342
342
344
347
347
350
350
349
350
348
346
345
343
342
342
344
345
347
349
350
349
350
349
346
344
343
340
338
340
340
342
344
346
348
350
351
351
350
347
343
341
339
336
336
336
338
341
344
348
348
350
350
350
348
346
344
342
339
339
339
337
338
339
339
340
340
340
339
337
338
336
335
335
335
336
336
335
334
332
329
326
321
318
314
311
309
309
311
314
318
325
329
333
338
340
340
338
335
331
327
322
320
318
317
318
320
323
329
333
339
342
345
347
348
348
347
347
346
346
346
347
348
348
348
346
345
344
343
342
341
342
343
344
348
351
354
355
356
356
355
354
350
345
342
338
337
337
338
339
341
346
349
350
354
355
354
352
350
345
343
340
338
338
338
340
341
343
346
348
347
347
347
346
344
342
340
341
341
344
345
347
349
352
356
360
367
374
384
394
405
415
424
428
429
422
410
387
358
321
279
230
179
126
77
31
0
0
0
0
0
0
0
0
0
0
0
0
0
0
0
0
0
0
27
81
153
243
344
447
540
620
662
663
661
653
627
584
533
475
421
371
333
309
296
299
314
337
371
405
440
471
493
506
509
500
482
455
423
387
354
324
300
287
280
286
300
321
347
377
403
427
444
453
453
445
431
411
388
364
341
323
311
304
304
311
322
337
353
371
385
398
404
409
407
402
394
383
371
359
349
339
330
327
326
325
332
337
346
357
367
377
383
389
391
390
385
377
368
358
346
338
331
326
325
329
336
343
352
362
370
375
379
380
378
372
365
358
349
342
337
334
331
333
335
337
343
348
351
355
356
357
358
355
353
352
349
346
343
340
338
336
333
330
329
329
328
330
333
335
339
343
346
348
349
350
348
343
338
333
326
321
318
316
315
318
322
325
329
334
337
338
338
336
334
329
323
319
314
311
310
309
310
312
314
316
318
318
319
319
317
314
312
310
310
308
309
309
309
308
309
309
307
304
303
301
301
300
300
302
304
306
308
309
310
310
309
307
306
303
300
298
297
298
301
304
307
311
315
317
320
319
320
319
317
315
314
313
314
316
318
322
327
330
334
338
339
341
340
340
340
339
338
338
339
341
343
345
348
349
351
350
351
350
349
348
349
349
351
352
355
357
359
360
360
360
359
358
355
354
350
351
350
350
353
354
357
360
362
361
363
361
360
357
354
353
352
352
351
352
353
354
356
357
358
358
356
355
354
353
352
351
351
354
355
356
358
360
360
360
357
356
352
350
347
345
345
346
348
349
353
355
357
359
358
359
355
354
350
347
344
343
344
345
346
348
351
352
354
354
353
352
350
349
345
344
343
344
345
346
348
350
351
352
351
350
347
345
343
341
341
341
343
344
345
348
350
350
350
350
348
344
343
340
338
338
338
339
341
344
347
348
350
351
349
349
345
342
341
338
338
338
337
339
341
344
345
347
347
345
344
342
339
338
337
337
336
339
340
342
344
346
346
345
343
343
339
336
335
333
332
333
335
338
341
341
343
344
343
343
340
338
334
333
332
332
333
334
336
338
338
338
337
337
333
330
328
325
325
324
326
328
330
332
335
337
335
334
330
326
320
314
310
306
303
304
305
309
312
317
322
325
329
330
328
328
326
323
321
318
317
318
318
318
320
323
324
326
326
328
330
330
333
335
337
339
341
345
345
347
347
344
342
340
335
331
329
327
327
328
331
335
339
345
348
351
352
351
349
346
344
340
337
336
334
334
336
337
339
341
343
344
343
344
343
341
340
338
337
338
339
340
342
342
343
344
342
340
339
337
336
335
335
336
336
339
342
344
344
345
344
344
341
340
340
342
348
356
369
382
398
412
424
432
434
427
413
390
358
321
277
231
182
136
89
45
10
0
0
0
0
0
0
0
0
0
0
0
0
0
0
0
0
0
11
50
112
193
288
389
488
577
647
662
661
660
645
608
559
502
443
386
340
306
285
281
292
315
347
386
425
460
488
507
511
506
487
460
426
389
354
321
296
281
275
280
294
314
339
365
390
411
428
436
439
435
423
407
388
368
349
332
318
309
304
307
313
322
336
351
367
382
394
404
408
408
404
394
381
367
351
335
324
314
308
309
314
323
335
348
362
373
383
390
390
388
382
373
362
351
343
335
328
326
327
331
336
342
349
355
362
366
368
369
368
365
363
359
355
351
348
344
340
338
336
335
335
336
338
342
345
349
353
357
361
362
361
361
357
351
345
340
336
331
329
329
330
335
339
343
347
350
353
353
353
350
347
344
339
336
333
331
329
328
331
331
333
334
333
334
333
333
331
332
330
330
330
331
331
331
329
329
327
324
321
318
315
313
312
313
314
318
320
323
326
328
327
326
325
321
317
312
307
305
304
304
305
308
311
316
318
321
322
320
320
318
316
313
311
309
309
309
310
312
313
315
316
315
317
316
314
314
314
315
317
320
323
328
330
333
335
338
337
337
335
335
334
334
336
338
341
345
348
352
355
357
358
358
357
356
354
352
351
351
353
356
359
361
363
366
368
368
370
368
366
366
363
364
363
363
365
366
369
370
370
371
370
371
369
368
365
363
363
363
364
367
369
370
371
372
373
371
370
367
365
363
360
361
360
361
365
367
370
371
373
374
373
371
370
369
366
366
364
365
366
367
370
372
372
374
374
372
370
368
366
365
362
362
362
364
366
368
370
372
372
370
369
367
365
363
360
360
360
360
362
364
368
369
371
371
372
369
367
365
361
360
359
358
359
360
361
363
364
366
367
366
364
363
360
359
356
356
355
355
356
358
359
360
361
362
361
361
360
359
357
357
357
358
360
360
362
363
364
363
363
362
360
358
355
354
354
355
355
358
361
363
366
368
369
367
366
363
361
358
355
354
352
353
355
357
360
362
364
364
364
364
361
358
358
356
355
356
356
357
360
362
363
364
363
362
361
359
356
355
355
355
357
360
361
364
366
368
368
368
367
364
362
360
357
356
354
356
356
357
359
360
361
359
358
357
354
352
350
349
348
348
350
352
352
354
356
355
354
351
348
344
338
334
330
329
327
329
331
334
338
341
346
346
349
348
347
346
343
341
340
339
338
340
341
343
344
345
346
347
347
348
348
349
351
353
354
356
360
362
364
366
365
364
361
358
356
352
350
350
350
352
355
358
362
366
368
369
371
369
367
364
362
359
357
355
355
356
356
359
359
361
362
362
361
362
360
359
360
358
359
360
361
362
361
362
362
361
360
358
355
352
351
351
350
352
354
356
359
361
364
364
363
363
361
362
364
366
373
382
393
404
416
424
429
430
423
409
387
359
324
285
245
201
156
115
75
39
7
0
0
0
0
0
0
0
0
0
0
0
0
0
0
0
4
35
88
156
242
336
431
522
598
654
662
661
653
627
582
528
469
411
358
318
294
285
296
320
354
397
442
482
515
537
545
539
520
490
453
410
369
331
301
281
273
276
290
313
340
370
400
426
446
458
462
456
444
426
405
381
358
337
321
311
307
308
315
327
343
360
378
394
408
418
423
423
418
409
395
379
363
346
333
321
315
315
317
326
339
353
368
384
394
403
406
404
400
390
376
362
350
337
330
325
325
329
334
343
352
361
368
375
378
379
378
374
368
362
358
352
348
343
342
340
341
341
342
345
347
349
352
354
357
361
362
362
363
360
357
352
346
341
337
332
329
330
330
334
339
343
348
353
356
356
356
353
349
344
338
332
328
325
325
323
326
328
332
333
336
337
338
338
338
336
334
331
331
329
328
327
328
325
325
324
323
321
319
317
317
317
316
317
318
322
322
323
325
323
322
319
315
311
308
305
304
304
305
306
310
312
315
317
318
318
317
314
311
307
303
300
299
298
301
302
305
307
310
312
313
313
312
310
310
308
307
308
310
311
313
317
319
322
325
325
326
326
326
325
325
325
326
329
331
333
338
341
341
343
344
343
344
342
342
342
342
343
347
349
351
354
354
355
354
353
